0.00252947351773404
-0.0012802692354193
-0.00250299958277725
-0.00223609920804669
-0.00171245989261899
-0.00117551878940231
-0.00104750911537419
-0.000898037715210564
0.000164132552053207
0.00168763933388971
0.00253739728075995
0.00162851434001701
-0.00070921088824133
-0.00271259949539562
-0.00387951843934759
-0.00373464353165042
-0.0013967310165303
0.0025308091677343
0.00575963323632586
0.00720811851155429
0.00724121523007652
0.00656277697141805
0.00633189529282826
0.00757422618811937
0.00932410951144546
0.00993342576789781
0.00830915096720646
0.00470029776127567
-0.000200554551037737
-0.00662918636230969
-0.0133893970950921
-0.0197910847742323
-0.0228538545839044
-0.0209655510171036
-0.0148799448910348
-0.00767601001503392
-0.00181378816850997
0.00248039070958237
0.00570146047243443
0.00803864573977929
0.00890427593488658
0.00728918188515765
0.00383814830761984
-0.000459156025942211
-0.00460716724960039
-0.00904824591850391
-0.01280340608866
-0.0140775451340493
-0.0102828491384968
-0.00128186648216888
0.00816816491922202
0.0135341897553583
0.0146778452880741
0.0135752744682573
0.0121268223522419
0.0104005749208924
0.00833266943541837
0.00578679196622728
0.00255079506721285
0.000442967259136584
0.000807219695789437
0.00213406810960802
0.00183170966667155
-0.0028133274432082
-0.0104429371687804
-0.0157804151543722
-0.0144042250685488
-0.00649887891742177
0.00274314179942559
0.00764534659218644
0.00750219454198113
0.00474260372841977
0.00159242557623692
-0.00122588552556927
-0.00379609415023021
-0.00553249520606646
-0.00571457156182631
-0.00424632029842315
-0.00163106339939851
-0.000389903786225995
-0.00119713482952063
-0.00386390587913709
-0.00783111527001319
-0.0118835545838086
-0.0139476835971525
-0.0121597404178741
-0.0057619754907482
0.00393964009770495
0.0129575307373234
0.018437555355157
0.0194188973429007
0.0168523762876607
0.0125068611808759
0.00766626465760559
0.00341445515361984
0.000264691639610458
-0.00175534895458421
-0.00254424107430862
-0.00201611751959728
-0.00105680730589197
4.91309282415683e-05
0.000896246832573065
0.00178879556265796
0.00184078992470452
0.00182634051289474
0.00249137880485774
0.00281778433288385
0.00320869059125983
0.00374840901511512
0.0036096931232999
0.00233588415954039
-0.000359894559060137
-0.00411038142254971
-0.00683484392087642
-0.00690585714147051
-0.00396090922673431
0.00106831730887858
0.00586526102383625
0.00845747127435453
0.00873043980363481
0.0065043327256239
0.00204431096508027
-0.00388671750973712
-0.0104513332835789
-0.0149116470523288
-0.0137087594122632
-0.0072526693303353
-0.000649958404045962
0.0017939500330202
0.000356085528922253
-0.00181042359921499
-0.0023148756350916
-0.000955149234562069
-0.000556427170678842
-0.00327175547072344
-0.00849140461117033
-0.0148900768904603
-0.020167035987552
-0.0209823487107661
-0.0156827753956187
-0.00580890059045854
0.00507248688343143
0.0126719915285709
0.0157030708261277
0.0156865871517043
0.0142548616266562
0.0124935400971096
0.0102150285351306
0.00748156282257853
0.00479161788062798
0.00213652371459559
0.000257800714728427
-0.000397415435455034
-2.51506474441762e-05
0.000512267422624427
-0.000412522098186199
-0.00220280607919575
-0.00432149670911809
-0.00522870417111434
-0.00310724159308368
0.00160347484430602
0.00721384392076739
0.011373584500078
0.0131476315454235
0.0123150458122305
0.00813112128763735
0.000933509007744798
-0.00688156866738639
-0.0115607411476094
-0.00994499308252124
-0.00353207156998854
0.00128843624489017
-1.44674905014257e-05
-0.00436205814224995
-0.00606116405865733
-0.00354712880888878
-3.70684046962096e-05
0.000725910279043566
-0.00144519430134438
-0.00362899599606554
-0.00364924044443771
-0.0022863257897182
-0.000666521217479552
0.00015328264214707
-0.00086886726280371
-0.00380335410727857
-0.00671915291203791
-0.00770766999269974
-0.00563176200502259
-0.000330887034083991
0.00523604657072044
0.0086343094754406
0.00991365616307323
0.00938613217679754
0.00770358277880153
0.00616936488166571
0.00490302591288247
0.00401175687170328
0.00347618222089922
0.00264515033239993
0.00137962444204903
-7.49785769112591e-05
-0.00127206127073526
-0.0022761040336541
-0.00344709245499274
-0.00488248705687226
-0.00666921920918206
-0.00850342669740154
-0.0106655613285483
-0.0127365799316463
-0.0130493322870428
-0.0111802318685743
-0.0066571374986361
-0.000254661698083748
0.00575220874667423
0.0106773977620178
0.0123211705891662
0.0119912447312563
0.0109468849784661
0.00919258207596773
0.00716332944764898
0.00546856663553521
0.003651041727283
0.00114492172113579
-0.00156722568795406
-0.00442888527015186
-0.00760276748984252
-0.0112137061799003
-0.0146879923414524
-0.0159601761519961
-0.0126755679830039
-0.00602449147805038
-0.00112310727967533
-0.0014824381135294
-0.00413565166239397
-0.00340748117502061
0.00245488040856035
0.00897235810290494
0.0117813621412356
0.0102448911248916
0.00685991880865994
0.0044945260961791
0.00473105488244629
0.0068485947148052
0.00926103366711467
0.0104919993874495
0.0102562778413655
0.00878892911319488
0.0065257599430012
0.004226074303541
0.0028138849049849
0.00185049396167165
0.00059091981673668
-0.000627393874796585
-0.00142696352562111
-0.00135099034947535
-0.000988767145943414
-0.00141394486357148
-0.0032686650270824
-0.00666673054151915
-0.0109361013961312
-0.0132075104266634
-0.0104941065644077
-0.0025857330620403
0.00512496447084638
0.00769230583980128
0.00527159510061418
-0.00010968429532087
-0.00547902226319591
-0.00741734707601575
-0.00582834983006284
-0.00165667810985297
0.00296838259408432
0.00590568575806115
0.00614433533286981
0.0049414697271312
0.00283466624444263
0.000869866184287795
-0.000983570143611413
-0.0027130957564847
-0.0038197210807491
-0.00430481892456155
-0.00485807441279396
-0.00518188991660714
-0.00641766419558928
-0.00774532864640437
-0.00794466309130586
-0.00643520363589715
-0.00363996687465574
-0.000956139484397434
0.000944487934702693
0.00144219844076695
0.000450592444305727
-0.00154644158525238
-0.00293153682019397
-0.00297689385031321
-0.00190253659838874
-0.000173165595544266
0.000237705159420868
-0.0010925655307666
-0.00436306265608892
-0.0081242277317707
-0.00922622647263849
-0.00538474290037739
0.00311510606767537
0.0124519463437349
0.0182250045094366
0.0194966553067703
0.0176276670716249
0.015063886865553
0.0117700761391492
0.00868101265066931
0.0060633611428124
0.00424135134163231
0.00275836243231834
0.00116642854682562
-0.000302643087427711
-0.00124836239701427
-0.00156861722226253
-0.00125278005244492
-0.000250191694228288
0.00122088269359956
0.00298135846970593
0.00347482095470809
0.00219419393060498
-0.000833900114269526
-0.00512952653038545
-0.0100980468182083
-0.0142504014842946
-0.0160048297273448
-0.0162003555651166
-0.0160653898678356
-0.0161764751396507
-0.0145523967627875
-0.0080539765864572
0.00245254220794991
0.0115528923387204
0.0140325020013981
0.00999114840285511
0.00194907361528031
-0.00674566617495574
-0.0116547838903936
-0.00871350494874843
0.00111932411391694
0.0110229284254621
0.0148954861864699
0.0129345179726062
0.0087150476904351
0.00545916072337326
0.00368340812310574
0.00242128965608054
0.00173586556123573
0.00114452323723948
0.000473959603743596
-0.000360355519577476
-0.0014970596457031
-0.00178343809402056
-0.00090989132914032
0.000826082791315255
0.00230112373316852
0.00348673093916788
0.00427929371883283
0.00494927057677571
0.0046989711790197
0.00230563584165839
-0.00148523048822224
-0.00535472379697024
-0.0077670166475232
-0.0078669848325455
-0.00571307748641734
-0.00275616241085487
-0.000326811348419003
0.00116188118826348
0.00223357094875914
0.00333863338157375
0.00419714574304195
0.0043165497278407
0.00318163715798655
4.84375772674453e-05
-0.00410931955792248
-0.00836401112016339
-0.0111838671434946
-0.0109286903989961
-0.00691331338839401
-0.000560866688676698
0.00552687163435832
0.00949735539811707
0.0108424174521565
0.00951479083251368
0.00662767725441202
0.00300917885822505
-0.000879570304295992
-0.00418516619176042
-0.00583597435674409
-0.00518750819556753
-0.00314915056670432
-0.00182409138982009
-0.00207486669320484
-0.00203919481620487
0.000183624718621503
0.00460669525952873
0.00773453130858795
0.00613079844425921
-0.000450014421916192
-0.00949185803910634
-0.0152098312042195
-0.0139552609180041
-0.00607657935090968
0.00308043303076577
0.00858011591607661
0.00985083569607402
0.00827711405823245
0.00514459631641671
0.00170211752582012
-0.00151065579371248
-0.00408322215535346
-0.00511111388997963
-0.00549310850086494
-0.00530462583929881
-0.00540077879934577
-0.0057086435012755
-0.00643978970518311
-0.00729210107681373
-0.00714624894431418
-0.00523125902668534
-0.00135299956534445
0.00378636223624437
0.00882581673006032
0.0127000639772205
0.0137883172748007
0.0120676291381426
0.00812214129330014
0.00220305106719569
-0.00554058164063583
-0.0131924123699047
-0.0167321730550902
-0.0127348676359819
-0.00180919089950646
0.00937060204449492
0.0144899387441561
0.0137888391791683
0.0103734976943517
0.00709941398349526
0.00405679993403117
0.0008364831275709
-0.00269860276649264
-0.00531632328500255
-0.0060317591695537
-0.00438387788895868
-0.000636439394062271
0.00321468816136759
0.00561191766806763
0.00642884316246831
0.0066083684950146
0.00532681494264178
0.00251977405060238
-0.00135039804562587
-0.0054048009115653
-0.00849625365064898
-0.0102609499877869
-0.00996523203148533
-0.00785863985192314
-0.00500655151666878
-0.00175693022894021
0.0025054523088131
0.00696370124201876
0.00971818582684847
0.00944343762774354
0.00586439077542518
-0.000210288047006746
-0.00745362179963551
-0.0142746274645591
-0.017538852738314
-0.0143849084586632
-0.00641071694665016
0.00158385061116998
0.00554215862611757
0.0055126046679928
0.00388478363477318
0.00284050534232004
0.00342788869652077
0.00424049728395259
0.00474971355621396
0.00477426621296328
0.00484170068354895
0.00510251730068821
0.00526982202266674
0.00458788110765528
0.00213966872066592
-0.00210550882811526
-0.00782853085789522
-0.0135347060072357
-0.0165695968183795
-0.0142899967180062
-0.00756465380071223
-0.000215241117066367
0.00384664189526625
0.00415877012296541
0.00255392741850952
0.000854519248835215
-0.000445803768313982
-0.000726025519191396
-0.000801560098963425
-0.00119906016731161
-0.00261898686140933
-0.00327075682803255
-0.00131021022458688
0.00302201525864088
0.00804522779739202
0.0116309464920219
0.0133551607085025
0.0133076915719641
0.0119247383940623
0.0100110228167317
0.00689758041207597
0.00344877666203772
-0.000383602178448863
-0.00396495563605851
-0.00670824154061491
-0.00888378857301368
-0.011005460434555
-0.0126913687552665
-0.0128186382842214
-0.00817304689418756
0.00177691700496192
0.011319547313364
0.0149760247803654
0.0131424121599368
0.00940954325532287
0.00589676789252492
0.00259304987110484
-0.00156131130730412
-0.007178807306463
-0.0132499024067647
-0.0169550032200288
-0.0157390186063807
-0.0102721039852022
-0.00432713604830841
-0.000240245089059063
0.00186102273664385
0.00404028978869248
0.00687566996737292
0.0097923052815241
0.0117956069573295
0.0112024348297923
0.00835624717215568
0.00494664266185333
0.00214695038195739
0.000630627340669949
0.000299680160262204
0.000922828335953131
0.00192824584287699
0.00213983645267703
0.00102454204276842
-0.00183578302638043
-0.00494094813309779
-0.00754706972953856
-0.00970427093026207
-0.0116440936875803
-0.0129937189406455
-0.0130706691603017
-0.0115151073889299
-0.00890993788987464
-0.00505586095228873
-0.000955431499364235
0.00223230644017486
0.00414630284029641
0.00488630167628847
0.00476054465663115
0.00422595883152918
0.00368685597937819
0.00332122148152929
0.0031760859050497
0.00395516194197394
0.00551474562507006
0.00678366529874146
0.00706168926611761
0.00584166979547486
0.00264956398471448
-0.00251891722868145
-0.00882253303549224
-0.0148785667846646
-0.0184652150687793
-0.016867994465237
-0.00890497347768838
0.00320174186721318
0.0145893891117954
0.0201521307329176
0.0197071064443507
0.016019821811008
0.0115057828505954
0.0076774976925692
0.00472167991121927
0.00206319072177779
0.000131238440511017
-0.000787451607434025
-0.00113718800651995
-0.000988922491651298
-0.000772451837128416
-0.000803315792404868
-0.000457050253603433
0.000175630540545787
0.000818765018095462
0.00120408277488246
0.000858214935189037
0.000349791600248721
-0.000215442970671599
-0.00128058909485718
-0.00377650363264381
-0.00882932946825227
-0.0160906786802144
-0.023128740070617
-0.0264995527815907
-0.0223988300585562
-0.0105912050152926
0.00379535330273547
0.0137759315847061
0.017151611996833
0.0161681048665876
0.0132296162382048
0.010510963938909
0.00834027185583081
0.00695917614963917
0.00646435794514556
0.00613801561702528
0.00518947265298221
0.00319276541853748
-4.4210403141327e-05
-0.00422331135530466
-0.00864339767503266
-0.0122695782620266
-0.0151602257512956
-0.0173293122096894
-0.0189137873250395
-0.0180408917320624
-0.011675999835768
-0.00147921697944409
0.00762481788142119
0.0115294713982746
0.011195528919065
0.0107703414303165
0.011948151854047
0.0134384821108007
0.0138173868443022
0.0123356349063225
0.00944414696107478
0.00576809244453025
0.00253447610504271
-0.000399613317054957
-0.0028479167528654
-0.00379672866632767
-0.00356648167165336
-0.00329287047312542
-0.00326161471728922
-0.00247042547530682
-5.74238233049884e-05
0.00364452813113446
0.00670973848367924
0.00764490009076157
0.00619587870263544
0.00296458278767005
-0.00140489462315597
-0.00577381735658362
-0.0102352850499669
-0.0145430264275656
-0.0173098760232503
-0.0169216533831475
-0.0117506793013984
-0.00224559655660457
0.00744959034999178
0.0132834081857663
0.0141312028887697
0.0122097505020712
0.00924178269684849
0.00630220874083395
0.00410922235978571
0.00213903131300149
1.68872861127109e-05
-0.00230427173828953
-0.00485812304103831
-0.00855331863362269
-0.0133880105570785
-0.0180102017747329
-0.0210957388296899
-0.0214959462371917
-0.0172075339009364
-0.00761525501784244
0.00447845357952682
0.0134777071663219
0.0155487600736857
0.0118771777841804
0.00588889080513849
0.00012134701957099
-0.00376489125004342
-0.0055786178926819
-0.00503409235303867
-0.00166773875884853
0.00266163548584007
0.00634481015443451
0.00848304061334443
0.00886498353785654
0.00795213011157993
0.00691131376241188
0.00608150202984186
0.00549750912863518
0.00482900859819635
0.00398274881599609
0.00266837239550154
0.000661645626142939
-0.00112670479899737
-0.00247193120876436
-0.00341172140991838
-0.0055505135243135
-0.00931404771760665
-0.0133784123626959
-0.0151524841448229
-0.0100873500867899
0.00125445173048225
0.0125405332249255
0.0180583231458107
0.0174354613617697
0.0139496498215109
0.0102481022496282
0.00752485235408625
0.00563004493523158
0.00352892981731746
0.00105502330379602
-0.000971879972134249
-0.00295256575019673
-0.00476430614806484
-0.00567410187046
-0.00536559439670892
-0.00421246781256486
-0.00339074884536915
-0.00287127533205623
-0.00187046429481464
0.000773734374680155
0.00463916407125863
0.00841322032271723
0.0103538295078292
0.00949506502600618
0.00676729101663531
0.00344995242620655
-0.000712792608811139
-0.00499458103920084
-0.00855903166856858
-0.0113914591154815
-0.0121304154156117
-0.00979214334970364
-0.00568671222884932
-0.00144056380888437
0.00134733801467005
0.00226074845327032
0.00137889701873223
-0.00160346770183689
-0.00673936088830744
-0.0144085653575207
-0.0236643534596892
-0.0309490640072203
-0.03279086158443
-0.028229065438798
-0.0189595730181466
-0.00722940455377987
0.00547547951421897
0.0159311568511882
0.0217451106850401
0.0233983861232982
0.0219402839355712
0.0181342710282796
0.0127520090333245
0.00714428067063218
0.00309436515572796
0.00104320193778954
0.000752997141240834
0.00175351396783765
0.00359993516485662
0.00538913736060528
0.00614253152818618
0.00593376756301671
0.00518424193524615
0.00435072359694237
0.00377799013725446
0.00331372314248062
0.00274539558278386
0.00216613425455878
0.00136338155910561
0.000175965326445099
-0.000958555617433762
-0.00117985135997193
1.39832289485996e-05
0.00177640579367161
0.00318094180856067
0.00464858081983903
0.0058785493522457
0.00690016919580133
0.0078080199968703
0.00821744278117639
0.00819604298906521
0.00759973601389109
0.00655969804415049
0.00531586772508029
0.00377072032818905
0.00123859113299978
-0.00210145097240051
-0.0067820423529848
-0.013109691837348
-0.0203373266851563
-0.0272944195653548
-0.0320558749824958
-0.0327718131457816
-0.0293121987432136
-0.0230512471156041
-0.0169710555249053
-0.0119720345089483
-0.00633746086347504
0.00251106509065794
0.0136710408752946
0.0217059414946902
0.022916543080086
0.0182669981693093
0.012068601768256
0.00728911438180608
0.00541018319724069
0.00667970040181823
0.00983746764074958
0.0124136544294369
0.0128236772420143
0.00983506969762085
0.00425288436311962
-0.00224223447123751
-0.00671541047064753
-0.00574342569206723
3.90204437229718e-05
0.00527984131744892
0.00538299098180054
0.000755262998672128
-0.00526442318174538
-0.00962144245833444
-0.0105262168691164
-0.00796497491756262
-0.00442845285418853
-0.00256202961073156
-0.00376102706079245
-0.00655065076521532
-0.00862395411488425
-0.00761064975343036
-0.00274299405674981
0.00501345275631956
0.0119066703811795
0.0145400295782704
0.0123797027107694
0.00705684533192498
0.000998607624237583
-0.00441705810457144
-0.00763815792154127
-0.00800476362093398
-0.00597829369116875
-0.00224689544979945
0.00195536270845105
0.00540093127529063
0.00737316909670398
0.00810395537103946
0.00814045112915111
0.00719566358276659
0.00571098762128252
0.00402062898435871
0.00230575600661487
0.000687683222214447
-0.000358965655529213
-0.00116392075626673
-0.00104639456161426
-3.5938567279408e-05
0.000994369873691578
0.00239588143778246
0.00405951859343462
0.0055085601318676
0.00689959052235105
0.00776541244498536
0.00807195603027316
0.00803925128103903
0.00735908961803578
0.00590573984122854
0.00375952065307866
0.00116346865141223
-0.00229589562204871
-0.00745838400248722
-0.0147291735925689
-0.0238818063768944
-0.0341590682511498
-0.04306297950448
-0.0480036454552476
-0.045114234194648
-0.0318823262727732
-0.0114664480967827
0.00835593580070774
0.0210936205988601
0.0262744644810217
0.0269752317867123
0.0255788396533707
0.0229522563715848
0.019448647669979
0.0155260754653056
0.0112492953065752
0.00677217510225024
0.00209486187010046
-0.00305130553430819
-0.008429632129273
-0.013114945827665
-0.0143435277273437
-0.00834673683967979
0.00397758599834408
0.0162373595117829
0.0218421373053448
0.0208798119490933
0.017235442924677
0.0128907723293274
0.00801603796016134
0.00242132883809194
-0.00226877219259949
-0.00613398779244569
-0.00855333198112775
-0.00809680056203988
-0.0059949617766859
-0.00408313453587312
-0.00430234913086305
-0.00650708467987419
-0.00954536258075709
-0.0119552634814141
-0.0117124139313615
-0.00899402351122207
-0.00474169592060051
5.86227739622592e-05
0.00369893739541812
0.00611098681453497
0.00768566883387366
0.00920901371242956
0.0099674407634111
0.0101763649114409
0.00979968242024343
0.00818995859893619
0.00509029223184606
0.000319317204418759
-0.00606968384852832
-0.0125673601163741
-0.0166265738011381
-0.0162067382866041
-0.0114679343072224
-0.00459890528707765
0.000668684579021857
0.00337188345810147
0.00378970201084931
0.00183080621070193
-0.00172250674229165
-0.00515908174811421
-0.00692232879404296
-0.00492920504690122
-0.000194701976510072
0.00491934906792534
0.00789884519804048
0.00889086587565646
0.007884665121901
0.00546564729906811
0.00266529012993065
0.000219816733091427
-0.00215410199260316
-0.00354968201541121
-0.00314126807215719
-0.00169489700853305
-0.000106874891453412
0.000250873100416505
-0.00154374702957868
-0.00522343341571793
-0.00853539781964706
-0.00918203549464073
-0.00699181358862032
-0.00458539603803248
-0.00375953701157941
-0.00438093751251263
-0.00508539548744606
-0.00224446622622695
0.00457082542110534
0.0111518654941357
0.0138274589414037
0.0126135383123194
0.0101226216175287
0.00775053101333096
0.00580824393469613
0.0047059863866052
0.00378529006893819
0.00241564338053574
0.00074707075323664
-0.00159152924432667
-0.00382350856766949
-0.00554536739275769
-0.00597535234866729
-0.00391804209481009
-0.000717909043600629
0.00234184480680425
0.00409516883525863
0.00378085300041852
0.00100943011242487
-0.00399075616531827
-0.00993263539785067
-0.0145035695369177
-0.0161745457486883
-0.0146358241855819
-0.00998434292608923
-0.00146554868755055
0.00922548559910227
0.01673804414537
0.0172226843028475
0.011750005816428
0.00471686283438529
-0.00098036833788768
-0.00319629956997841
-0.0022869319658017
0.000512009759794146
0.00382642445708248
0.00598342724023924
0.00622082817524948
0.00497945026848197
0.00287302675238261
0.000269492297691168
-0.00320411505794667
-0.0071977688745374
-0.0106859739965942
-0.0122358116768065
-0.00974056193974873
-0.00432821795505555
-0.000456153235269034
-0.00140764697865021
-0.00570124786983891
-0.00903250235604515
-0.00893437019122596
-0.00417922945611827
0.00349215342778468
0.0104872227797263
0.0142647083981922
0.0151316631595941
0.0136374936022944
0.0109326771045371
0.00823952518770786
0.00582960326760013
0.00344117220773438
0.00120091950571635
-0.000686201196565188
-0.00229834845290632
-0.00422710606933092
-0.00639415877451634
-0.00822247881282675
-0.00927418204192997
-0.0089731400056722
-0.007799700557405
-0.00691005050144588
-0.0065771802282425
-0.0070623627356432
-0.00823166283419978
-0.00857059564231155
-0.00600849810713387
-0.000221904679726065
0.00592699469113576
0.0102146675876105
0.0119585068670661
0.0116037012275128
0.00964623113196081
0.00678535636999238
0.003853613790308
0.00205316465542644
0.0016306536250684
0.00200672558635084
0.00262923099687765
0.00284837571506134
0.00214799663902317
0.000160640098285826
-0.00293893029860229
-0.00632901896299934
-0.00959803410427355
-0.0120381121607105
-0.0119830894118451
-0.008958632081558
-0.00332630163706769
0.00222064924401537
0.00560360848962344
0.00672580463879071
0.00681194736721025
0.00593787627262686
0.00551313851989707
0.00538943048199015
0.00561834051194953
0.00605331937171157
0.00684716514089732
0.00744741625616323
0.00714237921267715
0.00615446452090011
0.0045200565729472
0.00172129227640602
-0.00254858895665394
-0.00800798713237172
-0.0138442394028948
-0.0183447049468512
-0.0187246029042925
-0.0160900769553768
-0.0139434557399342
-0.0124433309525957
-0.00756982253858597
0.00277824245819238
0.0147924189050337
0.0229610950653363
0.0249511895959373
0.0226446164670478
0.0181424466619551
0.0129709886761794
0.00735101995895722
0.000948276165645154
-0.00698853295956794
-0.0156377679503314
-0.0235773439627543
-0.028658423516959
-0.0282259413735193
-0.0215614705012178
-0.0106172797827021
0.00111032257311301
0.0105986666016011
0.0164934757969865
0.0191871173097615
0.0200412735958825
0.0191229404117356
0.0167608735959984
0.0141646041957383
0.010799356946311
0.00739162041244118
0.0034352353391486
-9.12935285094095e-05
-0.00263717758873711
-0.00385828291025133
-0.00399247317890577
-0.00247237132107371
5.67344835516819e-05
0.00242848404190587
0.00368465586108525
0.00341580629733969
0.00158244082243112
-0.00105791077221936
-0.00397723682305757
-0.00778845249159935
-0.0120248030699562
-0.0161729213063134
-0.0188827330727213
-0.0190651887467657
-0.0155464546179713
-0.00950233635703664
-0.00250557631544677
0.0028512214487824
0.00554273226287808
0.0060755555900033
0.00551048459071518
0.00521589191664647
0.00501553532974966
0.00471466755327322
0.00436325647527049
0.00393513251813793
0.00337394538611158
0.00268898845267264
0.00250310237835775
0.00239359499217989
0.00214292583178522
0.00117400488554571
-5.70556507800612e-05
-0.000646321399454276
-0.000671502276294043
-0.000420673531416354
-0.000555849268812265
-0.00110928679078097
-0.0019699701112411
-0.00246301705757228
-0.00238111010431706
-0.00131001338220106
0.000957862182723833
0.00293283097798382
0.00288102883400406
7.14311535088734e-05
-0.00429972203951259
-0.00836936098487024
-0.0115699509473233
-0.0113786555295158
-0.00569571292748163
0.00428023850380023
0.0138005008050064
0.0186828476086505
0.0185814752911358
0.0165975728172615
0.0143218472020013
0.0119242186720227
0.00974330930512058
0.00737528682121417
0.00443446746260746
0.000960972342687557
-0.0037934306166354
-0.0105412715663403
-0.0190799904678629
-0.0280681353660881
-0.0341281001977095
-0.0315201349676555
-0.0188573979244018
-0.0019512874450519
0.0108139223353766
0.0150959797595727
0.0121485363627521
0.00579112114277373
0.000703318502097276
0.000413388399596743
0.00428579965074287
0.00882340519070911
0.0102926345834118
0.0078649140890505
0.00413708981482453
0.00168287450710417
0.0012125828076668
0.00210789087946533
0.00335456124910286
0.0045585810492341
0.00554342028885112
0.00659313862492743
0.00681231314059058
0.00546274496650258
0.00317486023395112
0.000637947655789178
-0.0030156669079722
-0.00726356038474012
-0.0119264168206089
-0.0149278458056093
-0.0145198900804208
-0.0101841032085299
-0.00312540824208216
0.00394153646524284
0.00863487968521267
0.00966319605632729
0.00721362516480382
0.00218763879045067
-0.00470315947954053
-0.0124079772231513
-0.0188211278323645
-0.0211502051736156
-0.016827553781673
-0.00715679373892991
0.00194508874397544
0.00601761275950802
0.00617309559757106
0.00629492171041232
0.00723221920044671
0.00868306399274774
0.0100176183498218
0.0104035730254816
0.0101913640066383
0.00934871189589254
0.00825388738686735
0.00696007896762567
0.00538140076774255
0.00352545268709951
0.00184337532830249
0.000845432182863571
0.000864732473922433
0.00151680126012252
0.00164963293702272
0.00130395156898661
0.00111530712663919
0.000896477281621485
0.000546481103597515
-0.000844518560036626
-0.00289695847331805
-0.00468922852247682
-0.00681004379317561
-0.00974974903087003
-0.0132259786159119
-0.0157521185275985
-0.016163815921852
-0.0134527096438203
-0.00878902404595298
-0.00446225850125371
-0.00148797138920195
0.000113507831512936
0.000722126632141389
-0.000579812934340177
-0.00289255078299093
-0.00388620942497853
0.000425243433782845
0.0105021912932978
0.0203483382620322
0.0246915613220788
0.0230850232056942
0.0189558866868421
0.014887553642181
0.0112761377102322
0.00821984248211985
0.00555657536824494
0.00264699911922278
-0.000816813165558512
-0.00619453429629934
-0.0140500402813768
-0.0235795477735778
-0.0318623651659491
-0.0346705976198759
-0.0298673673987365
-0.0198759047161911
-0.00944760786278925
-0.00197300933101322
0.00208864738753835
0.00377093629703433
0.00569918018705369
0.00860788977200696
0.0115920520413899
0.0132943173637373
0.0128092920054262
0.011113113351494
0.00946051629225615
0.00811482625360548
0.00688804588380873
0.00620859630547194
0.00592622415177287
0.00606218500383182
0.00599882588492812
0.00549237721153055
0.00452919281029209
0.00350453994218967
0.00258702765676292
0.00161900574807892
0.000492928150120273
-0.00104189013208237
-0.00279947746599769
-0.00445878760794591
-0.00619197688183579
-0.00750783020871201
-0.00850447310045479
-0.00989198733334695
-0.011395182634784
-0.0125132331993426
-0.0121578442650375
-0.00958424604304616
-0.00489775258592546
0.00177505660392309
0.00915193145522502
0.0155581162741753
0.0190102921500336
0.0189287277787382
0.0161140336928367
0.0120995501088062
0.00794526509546383
0.0030221534772107
-0.00253777154524607
-0.00856843412440551
-0.0140588399237105
-0.0174688154337327
-0.0167227766731444
-0.0107842403023428
-0.0018010985675883
0.00668420329395141
0.0107449838000107
0.0104110661167114
0.0071831173169024
0.00313865171780958
-5.66409622568681e-05
-0.00216201437753388
-0.00358301640194788
-0.00557914428699839
-0.00830249397439481
-0.00956087134901283
-0.00625188089068125
0.00156521708601304
0.00918680673750756
0.0115753626555988
0.00865984622659708
0.00328976202532663
-0.00202265956995641
-0.00629745175113101
-0.00834071834970346
-0.00812057614656863
-0.00598820115161882
-0.00273815317066716
0.000576044393227407
0.00304509769606568
0.00392048751912758
0.0037632754847795
0.00323838615151878
0.00196323928327925
0.000239946421892822
-0.00160530792623715
-0.00303910870913923
-0.00291724115420836
-0.000715551111762663
0.00262179079412552
0.00558259863300057
0.0070271385754932
0.00670447055078633
0.00548951707132901
0.00350425331467084
-8.0510368592422e-05
-0.00493021537392987
-0.00959245300379603
-0.0118135706194616
-0.01001913249912
-0.00612961977867899
-0.00422405521933133
-0.00602659159572562
-0.00829005681501386
-0.00569146655683367
0.00353514270890754
0.012789570437415
0.0166580315290836
0.0149347399364455
0.0108472392193305
0.00643961845603499
0.00276815550239194
0.000417297253943197
-0.000316684520122919
0.000733044031079929
0.00346410855382975
0.00621024992245902
0.00621525566895669
0.0029661157097433
-0.00255219526333086
-0.00843814293730607
-0.0132338674378707
-0.0152370677352078
-0.0146776451129562
-0.012839322963182
-0.0105070207698731
-0.00685008438022881
-0.000960358171463993
0.00596206340678863
0.0111739816310916
0.0133054202570369
0.0121690356161091
0.00945314329105274
0.00658628428040408
0.00346326331614637
0.000306047723459809
-0.00263112247243708
-0.00614557442595166
-0.00933272033928101
-0.0100212610352285
-0.00560123973451781
0.00303193236374659
0.0106796301287433
0.0129416807448766
0.00968996336503612
0.00429541323719357
-0.000125569623722442
-0.00200102286063155
-0.00195722551517269
-0.00108631405954016
-0.000758587940249134
-0.00152441965175636
-0.00331013850914089
-0.00543910724013064
-0.00693026525509772
-0.00738914629320658
-0.00578737390599412
-0.00175060283570268
0.00269983811704777
0.00677904162448406
0.00956183337757389
0.0107929508921135
0.0110003046576764
0.0102622796010887
0.0086330417389559
0.00609141373315059
0.00364716052286544
0.00133128892313757
-0.00132166210347253
-0.00431651888819888
-0.0078327571007076
-0.0111220519575575
-0.0131471122179978
-0.0131195863956699
-0.0110217501753986
-0.0069203674012734
-0.00194042423969667
0.00266924100414762
0.00608132680708065
0.0079251755080915
0.00802733148036925
0.00616028834944752
0.00253163625749518
-0.00262444681933192
-0.00906034744495494
-0.0159728391353163
-0.0198697828668473
-0.0175827680769297
-0.00974886584740507
0.000690491695982207
0.00995397769381255
0.0156048974665974
0.0171036823814165
0.0155197434220584
0.0127806657079093
0.0102074799668386
0.00744251092108405
0.00445182117876178
0.000181741906685422
-0.00538168976975397
-0.0112675760318442
-0.0158457373351715
-0.0168932738030051
-0.0120730617403359
-0.00216993171465017
0.00783910932258797
0.0134154020005897
0.0142090391526624
0.0117800672923396
0.00873194753019499
0.00594060063500884
0.00258060408626778
-0.00196376884391978
-0.00821296401751927
-0.0151131523945644
-0.0203842058207717
-0.0205002411524759
-0.0122309091100328
0.00273700503383529
0.0161014012384531
0.0217369732747857
0.0203711268514269
0.0151366192703737
0.00894235708534205
0.00308279710005738
-0.00195897523496114
-0.00619979828425214
-0.009780935218347
-0.0123173146160118
-0.0134097088927395
-0.0128982289429117
-0.0109711474706161
-0.00958984385400123
-0.00895369320947394
-0.00788785080912093
-0.00453786424145131
0.000682971531806093
0.00655800343797319
0.0112720987917249
0.0142281922322741
0.0154678277369358
0.0150294920177868
0.0134300766067907
0.0112640515984971
0.00887147476751337
0.0066304733186829
0.00447203853337615
0.00165487060519479
-0.00123756958352572
-0.00341175761097692
-0.0043651583601734
-0.0038610970335406
-0.00257770403840204
-0.00169812256293097
-0.00232752262888182
-0.00388811925791257
-0.00558521875182935
-0.00600947289804875
-0.00479889884296151
-0.0053291743054649
-0.00915103626656984
-0.0137301497992023
-0.0146315535065217
-0.0111838000938424
-0.00659686091606628
-0.00277665355384938
0.00165887299488013
0.00773189787159567
0.0128103825328771
0.0142735263286029
0.0117700174852155
0.00668550640039389
0.00147797579483989
-0.00217494035033791
-0.00355644782670591
-0.00299504736755158
-0.00175691899037354
-0.000304592724149164
0.00112007381824593
0.00272800556211209
0.00414943036318235
0.00476037819380776
0.00490088585963549
0.00427140315516312
0.00264360930712966
0.000194518526989057
-0.00275512568417984
-0.00544661589453864
-0.00705355675506423
-0.00736621313637363
-0.00584959350568356
-0.00306805220854053
9.21212323408112e-06
0.00220051261339473
0.00286342478152653
0.00216933716299979
0.00111367926567555
-9.47320262324664e-05
-0.00152849902790278
-0.00287633159143555
-0.0037987805235486
-0.00316386866107202
-0.000727100965035529
0.00315533322384956
0.00678161955925908
0.00916568474951893
0.0104328069793681
0.0102353503288749
0.00896814511618598
0.00674813002848402
0.003938225990931
0.000125370571167599
-0.00424044682756209
-0.0081602025098964
-0.0109861992353433
-0.011473688745232
-0.00811880771585588
-0.0012626457859358
0.00600404187515104
0.0107064146549393
0.0119212960822348
0.010505883830763
0.00848675057906349
0.00578422812011425
0.0026991342648945
-0.000107841326267627
-0.00316537415215605
-0.00643620858058575
-0.00943647337138165
-0.0109479219128269
-0.00997617698962667
-0.00771548295381628
-0.00692734602884864
-0.00952923387293221
-0.0158390722837695
-0.0219830443418672
-0.0209555517294324
-0.0095937591660303
0.00677810660493175
0.0180292958740898
0.0188559834377091
0.0134341041799909
0.00877068029095438
0.00771885329147056
0.00909009084526151
0.0106400020137075
0.0103932132624734
0.00849448150462882
0.00592497761441615
0.00305522997641242
0.000403318185064002
-0.00153922501693118
-0.0025904596540855
-0.00306965164646094
-0.00357731273185435
-0.00542251551647461
-0.00797900889169328
-0.0109101202787997
-0.0128347875345472
-0.0111533902136214
-0.00607254062861913
-4.50073401677617e-05
0.00388134302026681
0.00564619932828977
0.00588448497685569
0.00499078438684963
0.00361557528210802
0.00130171892793915
-0.00194866902015497
-0.00512168521322825
-0.00745822903839297
-0.00896142701688036
-0.00880472588847458
-0.00726260297100608
-0.00473713796500621
-0.00152520058248838
0.00226399087510877
0.00665623455289525
0.0102275414371959
0.0123782918621739
0.012781504617059
0.012152691436311
0.0102946552696424
0.00726333904384228
0.00366610896707532
0.000474404564784551
-0.00132111520013766
-0.00121840740043043
-0.000413737355912428
-0.000339833512418013
-0.00091593314170966
-0.0020131515882363
-0.00271733658043865
-0.00272493302383363
-0.00352941330488357
-0.00636779255759544
-0.00883057755250941
-0.00729417272094634
-0.00122490620954947
0.00531908994309471
0.00842996084171751
0.0078559246754613
0.00481048285917692
0.00114963221609864
-0.00219009851430287
-0.00490062406491117
-0.00750460946271524
-0.0100878646181454
-0.011510248122799
-0.0110507821088699
-0.00890380934970844
-0.00559327831916895
-0.00163120072315559
0.00268663374531435
0.00654067901092509
0.00948678821144538
0.0102457599105583
0.0075931112953625
0.00177645590264805
-0.0051590449831909
-0.00885455198204646
-0.00471898986895999
0.00574505892387842
0.0158014642693928
0.0192273620057837
0.0165026451595096
0.0111935026981106
0.00524961256886693
-0.000569592403357091
-0.0053963325737777
-0.00969543419609147
-0.0127716250118052
-0.0133900263206243
-0.0106769150860325
-0.00563897730285383
-0.000374276568646619
0.00258531275531676
0.00264286343793297
0.000607622567030737
-0.00257410312074204
-0.00547025190839795
-0.00729567071446308
-0.00764501124728971
-0.00812891062347519
-0.00904561768512035
-0.00840032767108419
-0.00385627037253737
0.00449410689626488
0.0129293965370898
0.0179909036655745
0.0183534632541876
0.0150508100541917
0.00977115344285899
0.00381116041989871
-0.00230863571918405
-0.00747076017907303
-0.00994908638406937
-0.00688244975778436
0.00099127182712676
0.00851463055186672
0.0120509359961728
0.0113988104380986
0.00927037733616565
0.00743032973118138
0.0057958657518333
0.00392630054669384
0.00156455181877864
-0.00116561786938157
-0.00386508000862587
-0.00558644984619158
-0.00623266193701447
-0.00545250564614877
-0.0037980424915619
-0.0016713821500855
0.000398851587367266
0.0020423960249595
0.00287097080563742
0.00230597389745116
0.000476207359818112
-0.00285686460743667
-0.00705795775304833
-0.0110766656849661
-0.0138726574118144
-0.0150742516497365
-0.0142988531418626
-0.0114040123134151
-0.00660930692194539
-0.000439216905338089
0.00629970203405726
0.0115627935036554
0.0135035780667426
0.0118674513822137
0.00770171761115887
0.00269570712985518
-0.00182047879426855
-0.00471692924993239
-0.00568147411867818
-0.00496222920255928
-0.00324459040857905
-0.00148359739467177
-0.00148111778564081
-0.00201598621646468
-0.00153211874262626
0.000453318406713305
0.00315348532225148
0.00516052541177503
0.00606677986551378
0.00607668940452207
0.00528742958548342
0.0043398685864583
0.00355920656544436
0.00287370574795374
0.00255265178565444
0.000826580570611083
-0.00233863118332176
-0.00750459891649657
-0.0150392348065411
-0.0232995759598899
-0.0267373968622302
-0.0186257036359814
0.000268518887199806
0.0188625084838115
0.0272577099847689
0.0256422284245186
0.0192533027818885
0.0123567499010705
0.00620066638997093
0.000359243327541585
-0.00531691167739338
-0.00982163652988803
-0.0124588122043776
-0.0117676507841241
-0.00758872555223513
-0.000815025710296759
0.00630786111674175
0.0113064342152641
0.0129816080649613
0.0123318124689169
0.00903188559876456
0.00389538449176852
-0.00199265025775554
-0.00751126275608841
-0.0103081073620374
-0.0086498725751878
-0.00400137668651129
0.000335199259412091
0.000792467671703609
-0.0018494427680047
-0.00544789613554399
-0.00754700732716716
-0.00686255306110735
-0.00400668660455433
-0.000560536571109467
0.00132485012188646
0.000742672621889064
-0.00213454338871363
-0.00677009640354621
-0.012085915969754
-0.0160419898212287
-0.0164126192011792
-0.0118725722551804
-0.00383951449895439
0.00456091606106518
0.0103263216659192
0.0129614690241638
0.0129186759908114
0.0115818450506644
0.00939725177667708
0.0067016265077792
0.00396069388194163
0.00179696199713515
0.000870203913998913
0.00158817746472308
0.00263008810516794
0.00248688206574087
0.000119560450045189
-0.00409201945925477
-0.00685006771904338
-0.00493232671614871
0.0019210518095788
0.00900496317133085
0.0113013270461273
0.00871245203997427
0.00392445136624622
-0.000321779827306464
-0.00305886090846553
-0.00403526274022322
-0.00423614070842012
-0.00379151266720299
-0.00285792349182933
-0.00273410712224855
-0.00242759653461431
-0.0013243263961786
0.000347735229925537
0.00184151398890641
0.00158380879371421
-0.0011590145757098
-0.00622136906130653
-0.0125271212665847
-0.0155668723099435
-0.0108482386433429
0.000323692980316811
0.0112286436259841
0.016025096256186
0.0156699719752411
0.0134348739149945
0.011022139944248
0.00917916753568711
0.00798201518657565
0.00734971912590015
0.00682978837704429
0.00503731596026936
0.00203011667631504
-0.00141877139358953
-0.00506741155773864
-0.0084556063326909
-0.0105757767096452
-0.0106230565916779
-0.00870308008341895
-0.00655354104778468
-0.00654089709900375
-0.00934335127863535
-0.0136403062389066
-0.0160619190805613
-0.0132471001486971
-0.0049828111669419
0.0046880362747851
0.010450157682346
0.00980773890927465
0.00438113989294018
-0.00282454643955242
-0.00885673478688483
-0.0109230845018929
-0.00683370479425827
0.00253285240644742
0.0110911745679353
0.0144840474009829
0.0126013987606335
0.00828558958336775
0.00382684500273477
0.000461730228864711
-0.00120086917970381
-0.00126000243693269
-1.5422272031071e-05
0.00268389407768384
0.00548491826606231
0.00729440745561196
0.00737224198588525
0.00631139664175748
0.00447666741646799
0.00189167399896312
-0.0005657513495855
-0.00205007471208419
-0.00195782693352796
-0.00120794801437157
-0.000579483553944003
-0.000390494843293797
-0.000660548786363974
-0.00121990809680075
-0.00214254831963409
-0.00315351279994574
-0.00298843655119749
-0.00168436462041559
-0.000182757906015391
0.00118975324973973
0.00230136303677589
0.00239327374134473
0.00224292795435759
0.00171717374027245
0.0013934183052306
0.00139159696000828
0.00131537952706566
0.0013251694068254
0.00183931814742726
0.00225459381812241
0.00219217723835321
0.0017183928458973
0.00103946014698375
-0.000379984435140948
-0.00237646987663844
-0.00499039820301217
-0.00768046305517573
-0.00913395594495814
-0.0090413285559159
-0.00773798220232735
-0.00462322995789366
-0.000766757548449586
0.00256955892226794
0.00411028076441325
0.00321725540446892
0.00111914849235672
-0.00214222562975012
-0.00487179334345719
-0.00508256289271783
-0.00290274443043955
-0.000513047521769137
0.000449448292952433
-0.000617163077201024
-0.00379821443589123
-0.00900456294636242
-0.0155919286816274
-0.0203708747946998
-0.018182799279318
-0.0068683902621096
0.00781489447930383
0.016878026311014
0.0176701770621996
0.0131821759925822
0.00805487865871109
0.00525904359802558
0.00562804552447529
0.00866928414756327
0.0114514410304359
0.0123872360327898
0.0110408801303208
0.00808416019733296
0.00429653633413072
0.00114144663885558
-0.00121271902944457
-0.00255738143342899
-0.00274483370713399
-0.0022394058884073
-0.00130386621224428
-0.000777287157170402
-0.00042136252843036
-0.000479293901252259
-0.00175540000615632
-0.00421187503823993
-0.00767493603462402
-0.0110291142868731
-0.0117840879823216
-0.00781291919947006
-0.0001288475108699
0.00718458338341416
0.0102674030707069
0.00924347230283709
0.00567571100455939
0.00230365064572624
-0.000103573993862711
-0.00157451807651828
-0.00156825284381324
-0.000870380611585556
0.000442395532106436
0.00175941596779481
0.00290116196790082
0.00402123010801509
0.0046257536596379
0.00453210457137131
0.00336616720122255
0.00149845095287
-0.000782732248569981
-0.00290162929782401
-0.00497990342165043
-0.00724383463361005
-0.00951681622287473
-0.0113137642701295
-0.0117503624903094
-0.0105366426551108
-0.00689231935968172
-0.00145106972411166
0.0035021139063422
0.00573431493862043
0.00511585388613064
0.00340089823438984
0.00206013684037549
0.00233601081132424
0.00444057809882919
0.00677307816795225
0.00874723541324284
0.00936866914440957
0.00845477726172472
0.00655055444923085
0.0049206383763753
0.00337620134740025
0.0014925329654895
-0.000812394835122536
-0.00380197442135617
-0.00780717191925713
-0.0126581251976914
-0.0164114266892049
-0.0182961917784921
-0.0190460081263116
-0.0201070125365017
-0.0207102991744525
-0.0170515601144063
-0.00721304867406904
0.00556561876050629
0.0163881659823148
0.0219268268912591
0.0227364151252012
0.0209622522096415
0.0170877511549438
0.0124738917311698
0.00808371756724491
0.00371469784476961
-0.000942068565542915
-0.00606450107403805
-0.0115940011783689
-0.0142262077979369
-0.00974601751243045
0.00125913929378199
0.01179391420822
0.0158652695406906
0.0139820714376873
0.00986226517587111
0.00548983015826988
0.00152237658959957
-0.00171990528225064
-0.00385589883746816
-0.00422671624286127
-0.00330343967676205
-0.00192103931038414
-0.00257426876796275
-0.0051654140180505
-0.00903767611261121
-0.0111246656495109
-0.00868945856171034
-0.00266672895855709
0.00373896315010027
0.00751639786797506
0.00815803404764069
0.006853569664334
0.0050306399095709
0.00335448491480127
0.00154746652203165
-0.000508455085775589
-0.0028266876848134
-0.00552347048022781
-0.00701580178613116
-0.00800755624917113
-0.00817160642869042
-0.00646949776967106
-0.00375396279525521
-0.00069018977172641
0.00201719237450846
0.00469746322994982
0.00710264896414933
0.00893977734343557
0.010142688222984
0.0101939994743025
0.00886044025019833
0.00616559273446318
0.00193910430855147
-0.00352644140775447
-0.0100764148275156
-0.0179027240118714
-0.0257914836291855
-0.0298652789605656
-0.0259271126136359
-0.014659372296407
-0.000620116200093012
0.0109115196377624
0.0182521202269347
0.0213810024139917
0.0216226174445326
0.0189041117326191
0.0148081305826659
0.0105873235662643
0.0071163481177076
0.00520742376608903
0.00471689660824315
0.00407980124981798
0.00323171937398925
0.00251092507968248
0.00147440324622811
-0.000275893659506136
-0.00331089115896866
-0.00738105523044718
-0.01114474859235
-0.0136217937535616
-0.0147742238011411
-0.0152533558941746
-0.0159496465072893
-0.0154185231097673
-0.0106672010073354
-0.00152857008487356
0.006733790912161
0.00894488218466048
0.00577471033367773
0.00177896032444994
0.000938461220100426
0.00327085028619499
0.00643862277218145
0.00845557163353948
0.00801004336544001
0.00626624708016473
0.00396701828536354
0.00161107721041814
-1.15775395998735e-05
-0.000663724022947352
-0.000235818869389215
0.000216376214755096
0.000897563542224269
0.00118100001998801
0.00164522309050613
0.00139359952567533
0.000762833252882004
0.000453011365963228
2.93533796901831e-05
-0.00080125267374498
-0.00167167693884434
-0.0025791910470717
-0.00251296989508049
-0.00198128003922552
-0.0010917348881592
0.000113706554525912
0.00069165513449048
-9.51589358806032e-05
-0.00158577289485302
-0.00335728786086841
-0.0063291077145885
-0.00997478614548035
-0.01247182857428
-0.0117025233986948
-0.00644039398463169
0.00209491331304469
0.00972824421343408
0.0123077606496208
0.00941618120902828
0.00412318188119961
1.00153366897351e-05
-0.00195359967588884
-0.00418403282223919
-0.00766236284560996
-0.0114465992806719
-0.011797896467175
-0.00772275083045117
-0.00246125538181819
0.000717605572060957
0.00263615462791286
0.00583227945220152
0.0104070678083336
0.014066390869845
0.0153166419535532
0.0141765062254175
0.0115367941236706
0.0080973397810121
0.00506732844152552
0.00241479217859248
0.000176166507433567
-0.00162880369830687
-0.00284745935523393
-0.00350901952081883
-0.00514522135369725
-0.00828856027620014
-0.0122583493758765
-0.0138141388837103
-0.00874193959052409
0.00217132363795975
0.0128257642341889
0.0167011803881195
0.0136848041971924
0.00752133404511143
0.000921364832769216
-0.00483429005051123
-0.00910440404052413
-0.0104693178582219
-0.00774161655087778
-0.00203296510808354
0.00432306788948978
0.00795913742699238
0.00869922988223612
0.00758928905558531
0.00591926704207572
0.00357834668901581
0.00103637903411654
-0.00095191659534886
-0.00250952486773905
-0.00408749983860303
-0.00546015028405664
-0.00627464295053494
-0.00592039338783156
-0.00475645765159637
-0.00326240249952869
-0.0025280867974604
-0.00275946215931581
-0.00427596671290103
-0.00655299832536406
-0.00870250670218433
-0.0106894592884247
-0.012551508213145
-0.0144973721303605
-0.0148493893399451
-0.0110848642883564
-0.000843995273925952
0.0137952370940077
0.025677219634789
0.0298929344717377
0.0266279483335404
0.0196381086723374
0.0115080284264263
0.00307422509384749
-0.00547396621363436
-0.0138433092622004
-0.0203226003311506
-0.023087762877705
-0.0216943317259535
-0.0169231999705764
-0.0107449911570435
-0.00354480542458436
0.00440737049883566
0.0114569322416805
0.0156769332210829
0.0170817623523038
0.0160158172003397
0.0132483241374201
0.0101780715601888
0.00822316515570101
0.00618657465899284
0.00317527648576101
0.000178406226079419
-0.00198076619503619
-0.00394016759586523
-0.00609841732824289
-0.00939512304143383
-0.0123370385918981
-0.0120844031170334
-0.00759777782865855
0.000586829119809736
0.00899065938291893
0.0140246587946673
0.0151329228755129
0.0141324246091609
0.0120432908854019
0.00982009802465614
0.00693484205678708
0.00383836284907283
0.000920680780210804
-0.00210336679900963
-0.00570022558315767
-0.00983488336888624
-0.0139790815072664
-0.016552982600329
-0.0161453317608056
-0.0127436680120819
-0.00737911758879563
-0.000931517656978734
0.00537680234723674
0.00972349539230003
0.0115920535250527
0.0117261103925281
0.0103281635897558
0.00831879981763481
0.00629208621565974
0.00447159746342018
0.00324164112355017
0.00208822889774699
7.01552858381723e-05
-0.00225737207638849
-0.00423154322081861
-0.00511407481270833
-0.00683523614045951
-0.00967871194733131
-0.01101539376074
-0.00767362057919768
-0.000365691548712891
0.00476981507952192
0.00256519222180578
-0.00585036835689451
-0.0153977638680776
-0.0197600073126088
-0.0153608647334198
-0.00462430910017123
0.00618250208177785
0.0113850325215009
0.0105057142303494
0.00536740943820435
-0.00138837280622169
-0.00794251597587762
-0.0115049287363803
-0.0102833466900548
-0.00509260650409174
0.000857712966684016
0.00475395172010155
0.00557699759374206
0.00421899624853438
0.00234304038890274
0.000968316562302077
0.000626579025242351
0.00106531749811055
0.00200387304519307
0.00303701017476441
0.0037214643158844
0.00396950045577679
0.00323871417337487
0.00238273959220075
0.00235341318141565
0.00334007290659068
0.00544214529507114
0.00810563862159836
0.0103966283804048
0.0109243739225376
0.0102892580398513
0.00884960824483428
0.00725817124004957
0.00542354146282752
0.00346370498094098
0.00183505649656022
0.00128528397650957
0.000493936308094608
-0.000874558811683216
-0.00266480159589358
-0.00520030656089538
-0.00844374378122713
-0.0115189158306467
-0.0124360793599156
-0.00879455271163954
-0.00142658247936049
0.00621105863121396
0.0106250292616186
0.0114334142086693
0.00976862082434265
0.0062808000028938
0.00133000900029101
-0.0046984081146218
-0.0114028472111495
-0.0174288246825916
-0.0218117361873095
-0.0227657091913977
-0.0201763607598385
-0.0156239253272392
-0.0111541027408693
-0.00761507172036306
-0.00314298307923146
0.00582675034323546
0.0188137648348554
0.0290977041689698
0.0311221761610605
0.0255077812594777
0.016045588964922
0.00644996885528901
-0.00244573911920009
-0.0102617027113752
-0.0168551896291869
-0.0218813813685191
-0.0245102001153859
-0.0244248642715327
-0.0204122855205564
-0.0118553350240675
-0.00115645459342438
0.00711898819378965
0.0105652040740512
0.0113932202572293
0.0120822998016213
0.0126223851967888
0.0118512062702526
0.00995166188726575
0.00743140350754714
0.0051517984442744
0.00364057493051461
0.00274363629681865
0.00253586449141969
0.00257832337704766
0.00264084292102564
0.00221434274402914
0.00137600446205493
0.000139565920808028
-0.00157639994104158
-0.003215415611753
-0.00498254409033421
-0.00657452718861116
-0.00777019164024315
-0.00771307855170784
-0.0061441847618933
-0.00288355152751467
0.000513287932179317
0.00330250082228903
0.00501201208925376
0.00561919397314686
0.00520011865771329
0.00448602751331732
0.00408812136931342
0.00364442837625351
0.00315711080954016
0.00244173551996959
0.00124063925808316
-0.000497582204954291
-0.00202848255845142
-0.00258924659704211
-0.0018979182130128
-1.14018708146945e-05
0.00251028849856948
0.00482067101694905
0.00568907410403149
0.00535177162784837
0.00403675663172027
0.00285545330362779
0.00228648537717553
0.00254593392784883
0.00275873203694875
0.00129012109013949
-0.00173083768222665
-0.00572826574323672
-0.0100221844409065
-0.0136128259172698
-0.0157558877717819
-0.0161212272015614
-0.0152156677380458
-0.0143237571649424
-0.0148481960328373
-0.0152909484728875
-0.0111860271794138
-3.55768285938622e-05
0.0133104910766247
0.021088517722153
0.0207835281925236
0.0146347013071378
0.00683142072009763
7.05451314134751e-05
-0.00441117435554233
-0.00655305077211496
-0.00647386362687277
-0.00487657835870685
-0.0023937728189191
0.000635305706532957
0.00348833024266878
0.00530835550540626
0.00510588996837408
0.00220930546522284
-0.00368893024073423
-0.0116302594122832
-0.0184988244357375
-0.019478094211919
-0.0102618130931005
0.00638509598053743
0.0205638369124532
0.0256329768611552
0.022631046544557
0.0167075198044493
0.0112767791996097
0.00721187428292163
0.00390081311853364
0.000845199823032324
-0.00135854255491377
-0.00274736468878429
-0.00393998774384334
-0.00477444000965396
-0.00507777188923801
-0.00507518704562457
-0.00463654936745582
-0.00336927832883398
-0.00177954587897696
0.000504817610457777
0.00332290443778251
0.00623948991558754
0.00776281328356024
0.00820226109895063
0.00798417572668639
0.00692029023046672
0.00527472641181819
0.00334896142409446
0.00123289731188132
-0.00105291798169529
-0.00380773015277507
-0.00586244776179922
-0.00537281228404491
-0.00373896118385292
-0.00123916682615359
0.000945553739043243
0.00148514762250636
0.000463863954858963
-0.0022666025965686
-0.00560238668669148
-0.00877838009920891
-0.0112607099148901
-0.0127429982659012
-0.0122382804340747
-0.00829548168283998
-0.00154937231536076
0.00356075820628314
0.00320837718331822
-0.00201049303201255
-0.00818892385652661
-0.0122596995574261
-0.012669069949564
-0.00940194136638617
-0.00421918991676024
-0.000901347953772925
-0.00100742671714859
-0.00289867536653928
-0.00322689630607644
-0.000591598343871514
0.00390332675403427
0.00741253649595649
0.00933365438894012
0.0106814171676305
0.0119032812954565
0.0128847372508265
0.0130189505780286
0.0118785569863553
0.00900613536850314
0.00557249946287564
0.00237657786627745
-0.000826266185006297
-0.0035287856098595
-0.00481941535439268
-0.00422760231767292
-0.00271868454552513
-0.0014436331776208
-0.00109019075998588
-0.00137295035992809
-0.00267122686215205
-0.00385709347878338
-0.00509143672901669
-0.00558180348486258
-0.00430195615216018
-0.00100224719350623
0.00413772689938799
0.00876950340963004
0.0111118725250805
0.0110451894879666
0.00906313410373229
0.00679611041116991
0.00545125818521916
0.00474022890122708
0.00425362111857615
0.00315460739167539
0.000625727138834944
-0.00415373053584083
-0.0110667121462142
-0.017766932661447
-0.0201327290969812
-0.0141715639874733
-0.000881945901409494
0.0124498992933285
0.0181390193573799
0.0146035857005506
0.00588548569216308
-0.00335799031364581
-0.00903536361238293
-0.00762878545092651
-0.000893147146809137
0.00590930880448931
0.0082432834682135
0.0057870600427625
0.00113734954002775
-0.00382012698260792
-0.00827202876498461
-0.0120811910390568
-0.0142987254351417
-0.0138853114981683
-0.0117815134332251
-0.00785846187140788
-0.00275036936317075
0.00204331461055564
0.00604802841764136
0.00889355143041913
0.00991697551055376
0.00941147341667623
0.00841924761640116
0.00722389055076531
0.00605444942098485
0.00456415858353439
0.00199302253132568
-0.00131860817027067
-0.00517174641316013
-0.00907919463003775
-0.0119458619996776
-0.012702695601955
-0.0111197275235757
-0.00731791882483347
-0.00180797922589138
0.00340588956876698
0.00674861826432789
0.00765564005425509
0.00556791207037557
0.00154444607625554
-0.00282214303640699
-0.00486019042560186
-0.00328766994332128
0.00100042098760488
0.00563664132127626
0.00888838135536771
0.0105739658421242
0.0107687614800395
0.00952812874759509
0.0073401543527215
0.00449389245252188
0.000749670715146693
-0.00433069215195626
-0.0103347042438453
-0.0166432182581561
-0.0213580901557688
-0.0213881780412015
-0.0157580889841002
-0.00607213324780855
0.00371364356265492
0.0111632603829674
0.0157148445275503
0.0166995974419306
0.0145902357323481
0.0101264481606732
0.00461752110473064
-0.00140176633527745
-0.00709922264483244
-0.0120809796520253
-0.013852321244512
-0.00998295080797123
-0.00224917572674194
0.00378934304197451
0.0036633502430133
-0.00137566612446006
-0.00572112271672702
-0.00390050771194171
0.00437124496786765
0.0122871210292056
0.0142913200832353
0.0103359520312977
0.00451863103617418
-0.000894216177766108
-0.00484071579712929
-0.00635060529262505
-0.00558365500073033
-0.00308880699349792
7.52929857243062e-05
0.00291698701409927
0.00454270843918113
0.00409079151542238
0.00183301104471327
-0.00108880816950336
-0.00423069271746596
-0.00677873474045573
-0.00722751041766039
-0.00594270947229391
-0.00274106416551209
0.00143832689873714
0.00558949238410222
0.00877834937690338
0.0103914904803552
0.0108745477199575
0.0104873457520806
0.00988972799125965
0.00839477527069632
0.00587455304940941
0.00259691806140193
-0.000387999656743166
-0.0043285971500758
-0.00848746228326349
-0.0107555780783433
-0.0106389137990838
-0.00812091449784061
-0.00456158177002747
-0.00122197668115177
0.00161917093844766
0.00427171051547938
0.00689198210216571
0.00808316301839678
0.00653344677460922
0.00200628105889467
-0.00429264193887526
-0.010504162171658
-0.0157846845658098
-0.0197347751639224
-0.0227986391679996
-0.0245236009529441
-0.0217634024833083
-0.0138231805088454
-0.00329754471889721
0.00758110488586368
0.0170434979532058
0.0229512183972262
0.023313347875041
0.019563532468541
0.014226956804072
0.00919765785516719
0.00522427593035264
0.00248734714457892
0.000711546242564829
-0.000603095638453021
-0.00154569399105979
-0.00232993151164138
-0.00241081985795401
-0.00166919729228033
-0.000808724461786275
-0.000117764398525143
0.000376036951234221
-0.000382437842094104
-0.00227279642896743
-0.00444610791495633
-0.00623391828978859
-0.00682761670854376
-0.00644180437721089
-0.00388345175959959
0.000462831926161286
0.00453934768934064
0.00680141207519573
0.00715177986773205
0.00590299024803746
0.003806767735432
0.00124615799283677
-0.00211835250880456
-0.00548488175376693
-0.00804189522206394
-0.00917219621208819
-0.0081523580520823
-0.00500522622832051
-0.0010398543954621
0.00252844344721878
0.00482685150832213
0.00601665081031651
0.00653502195139853
0.00696720581650078
0.00713860009528009
0.00655886136941928
0.0048278308465301
0.00117923339067603
-0.00437284946691631
-0.0104659404604494
-0.0130080587786046
-0.00828000573245476
0.00302447320107841
0.0145658635745393
0.0194302192019412
0.018084864782331
0.0141467827622333
0.00975603507075437
0.00630372037154533
0.00348117379435532
0.000788575473693034
-0.00217985171417332
-0.00560401239109209
-0.00868331455546254
-0.0105414017683936
-0.00953242494317204
-0.00731715323093322
-0.00552166095336691
-0.00545039395005142
-0.00742513234797479
-0.0106868890358518
-0.0149001015458175
-0.0194203355064032
-0.0225239345955079
-0.0215049387755328
-0.0134758927835342
0.000384580391025991
0.0149695334440786
0.0236372280888987
0.0238119476485226
0.0180703020862086
0.00972536443072815
0.00165588690656003
-0.00422727071986127
-0.00693621457884577
-0.00607840502279293
-0.00234607931471019
0.0018773864684121
0.00465889796005859
0.00556179863826859
0.00461519086299392
0.0027849679438867
0.00107858410001354
-0.000176076747432453
-0.000328238671277193
0.000598401498245377
0.00151230241721168
0.00270687206373264
0.00406012813059424
0.00528333790153169
0.00588993195007086
0.00549566024908022
0.0044446094991652
0.00288148011960116
0.000971472961828771
-0.000967016121622388
-0.00292488156151154
-0.00430384945671525
-0.00505201915970653
-0.0050797720587625
-0.00498343335105639
-0.00573378078678733
-0.00698718232856234
-0.00880113656393578
-0.0108336170020595
-0.0114725512508071
-0.0102227301682661
-0.00662530581431901
-0.000941023182323084
0.00578377859497407
0.0120697043895526
0.0159865850032484
0.0167935742288978
0.0151856952776631
0.0118470478974819
0.0078961182057864
0.00433502671877783
0.002785582543878
0.00237687899682261
0.00204939836189992
0.000737020170402548
-0.00196541955610452
-0.00535853041945161
-0.00807626929710458
-0.00979762797229415
-0.00974442592101994
-0.00807004515963511
-0.00641056820685506
-0.00747018479767659
-0.0120378540393496
-0.0178048631891285
-0.0204103512082262
-0.016578550561173
-0.00683660836173479
0.00412528371680114
0.0112943466314704
0.0125552383455425
0.0119928094360235
0.012794635591074
0.0132278432179164
0.010916970384709
0.00633973930236488
0.00234446586309378
0.00122762532603883
0.00322616497948728
0.00666211003620093
0.00879619754537501
0.0083623786240239
0.00632087265666077
0.00350882083031501
0.000340961578335426
-0.00280610697223668
-0.00594368905758446
-0.00895098903178384
-0.0114946281176951
-0.0132707693243047
-0.0143420359966032
-0.0135064937013402
-0.00995188290960131
-0.00420778950626925
0.00157417955733225
0.00563010512551495
0.00742930432641999
0.00740985922159455
0.00658182436346816
0.0055088905630924
0.00444498937863307
0.00338215489495497
0.00198667792713907
0.00119305230431912
0.00050424021145421
0.000507968802304949
0.00124697266643163
0.00159233780703921
0.00197711070826924
0.00213630903290034
0.00204494983407774
0.00143999134062161
0.000556910304720042
-0.00015194749303237
-0.000681953224918273
-0.00124081931924591
-0.00113940489730279
-0.000812554500457175
-0.00116921747131511
-0.00279606219014582
-0.00476212786365216
-0.00615631097460051
-0.00652774043399361
-0.0059699130741629
-0.00508943787190859
-0.00527375492402909
-0.00667145635549311
-0.00679833918709505
-0.00275576191292384
0.00540876528093331
0.0132120202897414
0.0165992455739549
0.0142184465915531
0.00869193784995364
0.00328947144729681
-0.00117615118496257
-0.00304131686645713
-0.00160018496358031
0.00218021034067561
0.0061629066418378
0.00849384184892855
0.00884813311895752
0.00797227042256343
0.00693619977651065
0.00588546304761058
0.00431748228825384
0.00208853982438513
-0.00185047501450084
-0.00769509043930076
-0.0146729681845358
-0.0193354555506388
-0.0175000803112529
-0.0088845234221091
0.00130564808702647
0.00815396372380187
0.011240785794828
0.0118061266221692
0.0102593726692848
0.00726838852843252
0.00309530039815244
-0.00125225606563693
-0.00527915517301974
-0.00859114839037506
-0.0107888927120134
-0.0118566053044909
-0.0115155574822988
-0.0107949756022804
-0.0100749151879307
-0.00918428270854906
-0.00722726047430419
-0.00348040735107557
0.00143014156378031
0.00605924756887118
0.00851705255821448
0.0081672370131564
0.00646987971532786
0.00475652649386697
0.00340186096235876
0.00225440156277375
0.0012943204952989
-0.000145381944416925
-0.00253144377316755
-0.0060019832844804
-0.00932890839578685
-0.0099809303501701
-0.00683161989985234
-0.000568223423010667
0.00531235764016631
0.00737087412549203
0.00508331911646853
0.000709321343541429
-0.00323987734568921
-0.00397116429569357
-0.00157740456359652
0.00169660475555528
0.00367482513078639
0.003035826662227
0.000423831625948392
-0.00154881301927492
-1.52528761291747e-06
0.0055594348467584
0.0107112777786517
0.0119546195181146
0.0104330073662623
0.00787515365059895
0.006359252795851
0.00521746942866809
0.00370891740845072
0.00142702670969097
-0.00162978511728486
-0.00479721358699563
-0.00711771474229097
-0.00766221105122512
-0.00631925284753044
-0.00399409676621778
-0.00188403154725789
-0.000826287845996467
-0.0010197180901014
-0.00209016330148469
-0.00360465568285429
-0.0049503061737252
-0.00628662158311017
-0.00753735914640431
-0.00737378985198311
-0.00447924076941867
0.00119941784516859
0.00793945268673458
0.0132093882741965
0.0154486792770612
0.0140823681038178
0.0104965070113971
0.00677864911712008
0.0040236979312394
0.00198660289780705
0.00086601683379396
-0.000457119855717484
-0.00347570385056883
-0.00819004100107974
-0.0137227796726633
-0.0162519015872287
-0.0119905321042442
-0.00141873202209064
0.00821307546519547
0.0113346576330125
0.00878559041575103
0.00468533032041305
0.00202754869957888
0.000753671277010298
-0.000607176575553459
-0.00387855377631411
-0.010383667314876
-0.0192433276683942
-0.0284506658043417
-0.0328256189585403
-0.0269199810753415
-0.0119887991740134
0.00313308827138957
0.0107577720238279
0.0107876364982475
0.00782155221980799
0.00640317595521432
0.00801325690755634
0.0104100892792555
0.0116347954275868
0.0111317313027147
0.00974396394175225
0.00840845149863323
0.00782146648209905
0.0078078606989174
0.00809131301818603
0.00744417214633163
0.00583514624954597
0.00348665704900324
0.000958178991597231
-0.00174847547150828
-0.00421110916007018
-0.00611018365781499
-0.0082255084370308
-0.0101856353101871
-0.0114166746278287
-0.0111767317575351
-0.00923324634956129
-0.00532782651502455
-0.000796946595619113
0.00171505401760167
0.00171674925552418
0.000826331078409017
-4.91132933271134e-05
-0.000685964723259527
-0.00109661743274827
-0.00104370349032389
-4.58968400577362e-05
0.00162393011242202
0.00331472764897734
0.00495326092624822
0.00631819358498352
0.00726093229731865
0.00818440295727513
0.00896252977435024
0.0100066319698973
0.0103918429557005
0.00997846671318775
0.00901688350369717
0.00760135200763897
0.00590738269909382
0.00441295261582281
0.00279131229260547
0.000949105191559798
-0.00113723099460801
-0.00323572970472806
-0.00604148746945423
-0.0105725405232783
-0.0163105457542367
-0.0223740939750006
-0.0280211963333739
-0.0300602605255526
-0.0246328672998481
-0.011889741392386
0.0023482102792162
0.0136377635026525
0.0213325771769271
0.0249013637877016
0.0235488218934737
0.0185389473646991
0.0126463394293838
0.00842111723661445
0.00559249369269574
0.00362974166105474
0.00212762500108865
0.000552009595122809
-0.00146876965082157
-0.00414909672047843
-0.00754499561731844
-0.0119300574678519
-0.0178500087980697
-0.0249163137834407
-0.0312408038754007
-0.0334097599016582
-0.0286437404647958
-0.0169883144797732
-0.0028212736862973
0.00910783778836311
0.0169850113223639
0.0206747009628198
0.0216342490268522
0.0209078720264363
0.0185077375271601
0.0157182602456801
0.0131456085475559
0.0106640342283014
0.00813128184842503
0.00590743979203651
0.00379333416670474
0.00153568873795673
-0.000778929515594122
-0.00325715486502153
-0.00579202187054338
-0.00821385234241188
-0.0102942918548064
-0.0119612581330177
-0.0120773445876017
-0.00925914105655536
-0.00449237969012858
0.00119343691242875
0.00612799613355641
0.00930521783195572
0.0100971718194115
0.00884513843475062
0.006265431651993
0.00239281528189841
-0.00258915478210617
-0.00800628455199
-0.0130810723311149
-0.0154729675467397
-0.0126474123251608
-0.00526422475424758
0.00245695049980473
0.00666521928894099
0.00761496478922555
0.00743217982328806
0.00748748646573161
0.00775324444085642
0.00786918516893974
0.00677127904004285
0.00475490557717013
0.002045249225129
-0.000549260166573075
-0.00147481310047107
-0.000682893232612732
0.00106956602902985
0.00379400661206231
0.00662551967862892
0.00889152122362249
0.0102824926216625
0.010207533734407
0.00899130825315911
0.0062802601278924
0.00226329360432076
-0.00237430139557764
-0.00672649355296885
-0.00994073859399134
-0.0114197074349033
-0.0108632692841156
-0.00957408188465201
-0.0102309863984752
-0.0130004914149231
-0.0148564245219228
-0.0122268542757184
-0.00477373476126879
0.0016136000340728
0.00115664281642488
-0.00441829613988198
-0.00899709725044967
-0.00876667347582329
-0.00336366293730047
0.00428781251520306
0.0102933035203457
0.0131133249755787
0.0127195246033342
0.00996607549450286
0.0068027385587656
0.00423416659544702
0.0025707681000616
0.00164790508588007
0.000962817195932777
-0.000125501583836582
-0.0018469358773261
-0.00465480737224634
-0.00820606604590407
-0.0109692824228302
-0.0125170114513893
-0.0110241520672285
-0.00520278744693659
0.0033820028120995
0.0110095503939939
0.0151216283985096
0.015839544286803
0.0140110415003427
0.0111259791648058
0.00804937766251388
0.00518817794812022
0.0015016953691635
-0.00338001829896258
-0.0097593120850176
-0.0172242549932069
-0.0229063636390631
-0.0234203856332514
-0.0178719263738406
-0.0100720960849598
-0.00378627362847718
0.001150374889178
0.00662946338325658
0.0112459993191845
0.0141676233116775
0.014843084709334
0.0133950469673282
0.0108792204154423
0.0085315271667231
0.00636740559369719
0.00501977161701204
0.00483969792016076
0.00510887179029214
0.00488063268023279
0.00406941114504507
0.00265450540598728
0.000951517504213409
-0.00100654514116989
-0.00352733272617489
-0.00558918738106036
-0.00699322364667507
-0.00719587140011279
-0.00630041513294829
-0.00531731993429103
-0.00576256499698658
-0.0079977155911045
-0.0113208013851217
-0.0130836206990022
-0.0106204413314239
-0.00509648292164152
0.000245280459196472
0.00156078950746342
-0.00151617810000265
-0.00706496193531675
-0.0118530995166231
-0.0125971415353539
-0.00834719310254399
-6.26255084758007e-05
0.00923918070295388
0.016079889060945
0.0186413298836349
0.017795305648721
0.014901465242496
0.0116157782703512
0.00818766312619684
0.00484794173112264
0.0015513341497599
-0.00193731363708268
-0.00610041668245495
-0.0108182443707584
-0.0151608603488968
-0.0180205449243683
-0.0165065797736048
-0.0104017015721361
-0.00244633172573002
0.00565465207991212
0.0127240279474312
0.0175421491800558
0.0173822302877053
0.0116199279445199
0.00254392310910707
-0.00699492332629334
-0.0127590194683498
-0.0105792871261712
-0.00139080620851601
0.00867133982104881
0.0130163197095022
0.0115340285000248
0.00768666104128037
0.00424924541305536
0.00232400601678228
0.00174600756218518
0.0011878313881061
0.000512267033920216
-0.000496096681010572
-0.00173840810691423
-0.00244433581614022
-0.00263699327352811
-0.00190234506509146
-0.000944570136110188
0.000224845925317704
0.00166589490020478
0.0025379285328713
0.00304327261209188
0.00234691354429473
0.00069857564586407
-0.00123547351193112
-0.00371297689804944
-0.00632534419992223
-0.00785890965211431
-0.00820975604775977
-0.00665529954245658
-0.00341797759984851
-4.24202419617675e-05
0.00146405172112477
0.000622886666736497
-0.0016275669587321
-0.00359283175309541
-0.00467535972511847
-0.00470662867359789
-0.00420976429943984
-0.00375178392014172
-0.00345618306430837
-0.00345766344804224
-0.00362040779429831
-0.00314616700452498
-0.000878863523399681
0.0025886497321934
0.00430908344566014
0.0033059165843271
0.000406371840813646
-0.00196576801069876
-0.00178246432159999
0.00173281234913673
0.00718751056381651
0.0124218391106022
0.0142590355855359
0.0121332746837524
0.00767098982347776
0.00293583675413922
-0.00168117762078487
-0.00574332053143951
-0.00899160314906743
-0.0116499335975524
-0.0137692787543951
-0.0152423442440299
-0.0142168937416766
-0.00855304676718995
0.000547855001368262
0.00873552787572831
0.0119981809547135
0.0108556156819564
0.00798477950852614
0.00534834611460993
0.00357761792970727
0.00277219686345067
0.00263101198861741
0.00287271014062082
0.00291005698994685
0.00244390949073706
0.00234346884577496
0.00300717501051706
0.00381525643725046
0.00461096503647954
0.00529696285150263
0.00647431475036765
0.0074503544275167
0.0084182561655915
0.00904020469427745
0.00894170160708943
0.00817380988149948
0.00686323792253364
0.00508567243876854
0.00185958009714016
-0.00359305363569739
-0.0110558758205143
-0.0213453723666021
-0.0344311148877033
-0.0483494017282042
-0.0574304696528976
-0.0539136824107019
-0.036286933133143
-0.0113360400280264
0.0108197283017973
0.0249056287414676
0.0317030923968414
0.0335046505630456
0.0322779652891944
0.0289063310397524
0.0248614301540615
0.0210145722935374
0.0168431665858766
0.012684005549465
0.00901099957720217
0.00603565484302398
0.0034522149901124
0.000214996734494492
-0.00392143706972168
-0.0086889937000292
-0.0135577538721033
-0.0173785668737504
-0.0184659417734883
-0.0153454024309886
-0.00895629394200953
-0.0023287977521849
0.00216748359936174
0.00304281441461009
0.000516930561033923
-0.00318099341836391
-0.0048399423602918
-0.00103965139876615
0.00656892010151006
0.0134549859800598
0.0162989922409865
0.0148693274452789
0.0112818595018207
0.00727228360262723
0.0034257360632221
-0.000300172357348738
-0.00386711696112102
-0.00752607345953503
-0.0109637814442032
-0.0139216100009847
-0.0162513249367739
-0.0178509867646437
-0.0188887682883506
-0.0193803271231533
-0.0192248749633304
-0.0175795421416933
-0.013819106244149
-0.00786826742312107
-0.000973427741274588
0.00562071282913993
0.0100627393157124
0.0125486225957183
0.0140296711130146
0.0146387667205341
0.0147636807869736
0.0149741310008614
0.0143696264186141
0.0128499341734432
0.0108607156375981
0.00891866948132819
0.00692945993012392
0.00478154297656801
0.00232893814173433
-0.000448413866831208
-0.00398606944512339
-0.00831300295965404
-0.0129123792572812
-0.0161793261734678
-0.0169673318961752
-0.0137715603652104
-0.0063352683854985
0.00232712324532417
0.00917854504690467
0.0122283804566392
0.0125152548740232
0.0116858214523961
0.0111522541514859
0.0104407231428797
0.00891058181230142
0.0080153342163734
0.00736006228915647
0.00605714584534207
0.00477454918160417
0.00272169561454274
0.000488692595657107
-0.0014729884549581
-0.0031900201935394
-0.00444799269424
-0.00527688170833572
-0.00551831510555325
-0.00494986887586609
-0.00383137419734162
-0.00121340086035425
0.00284092934781588
0.00560810497581154
0.0042813130789792
-0.00139800268934414
-0.00917745246630394
-0.0141084216256267
-0.0117011434164051
-0.0024545917130115
0.00766310550015417
0.0129046846871695
0.0132121338133948
0.00980999976745878
0.00419933084461747
-0.00328099116671009
-0.0124337119325598
-0.0216995363316468
-0.0280573229950416
-0.0280130977909163
-0.0214624780432676
-0.0119296555917589
-0.00202761271881082
0.00708532473814644
0.0142519158673912
0.0169869652138572
0.0147293263657847
0.00855018118943619
0.00130347973107505
-0.00499912807526172
-0.00888653336904744
-0.00924084002428321
-0.00576690684712743
-0.000246419074172453
0.00491157021868367
0.0079212675644132
0.00846923939802399
0.00697298541802868
0.0046373974339079
0.00262323640662983
0.00122577986163659
0.000267606312439505
-0.000218759781732414
-0.000726691553928945
-0.00126669281536737
-0.00154727263562042
-0.00143322771571614
-0.000778814083765727
-0.000911818003771734
-0.00203185804547918
-0.0029186292876039
-0.00299702450116766
-0.0012325491924014
0.00205220859147847
0.00536641484878844
0.00722560596857032
0.00794521396390616
0.00796380980874652
0.0075215199247417
0.00679332219203156
0.00575585365008444
0.00495444235639256
0.00421441657579653
0.0034482659722883
0.00220517670631284
0.000172432379855834
-0.00297778666289983
-0.00675707522494139
-0.0111546675082331
-0.0155192026206219
-0.0193388497154279
-0.0217521044262975
-0.0215635667850557
-0.0158929366092676
-0.00397406610920608
0.0112936635805784
0.0232327071299243
0.0268442546783028
0.0228215748326686
0.0151375372033437
0.00720255863433708
-0.000528463191047354
-0.0077141193905681
-0.0139795656942114
-0.0183988533169311
-0.0194971685908793
-0.0170075121250622
-0.0113658522587714
-0.00513998579548288
-0.00070729580271092
0.00175827804152057
0.00259968257962194
0.00397725339312993
0.00609344640661426
0.00862531494272396
0.0107132778366738
0.0113923074149286
0.0102306398608208
0.00802917193932232
0.00421288030659776
0.000318113088551309
-0.00298242414679021
-0.00464918060496462
-0.00415748477348223
-0.00235916260775119
-0.000244588276005693
0.000255313281193309
-0.00163858350685895
-0.00539473016224001
-0.00978209710213435
-0.013536917535671
-0.0144988927359677
-0.0101579244309783
-0.00154471761353557
0.00690462462029788
0.0118467872812266
0.0122591989106869
0.0103391228803403
0.00870199389596876
0.00716645719531662
0.00540497752544788
0.0029027641768975
-0.00153707562824156
-0.00702838462048352
-0.00994659429751577
-0.00646302192987312
0.00308909788429058
0.0123083683778623
0.0150178554859804
0.0113209768077939
0.00523645252610046
0.000145598891064957
-0.00291160761621184
-0.00466928018132966
-0.0064328148858168
-0.00969091761092614
-0.0131460924749948
-0.0146254168876393
-0.0112198485621323
-0.00244254303755507
0.00641780964247183
0.0106914237338485
0.00940092275142731
0.0050194970767132
0.000187864443167912
-0.00342110535825402
-0.00388586431988893
-0.000775622126673956
0.00487893069775196
0.0101014243041105
0.0123129640959326
0.00985958886004291
0.00357748846244925
-0.00435002288239574
-0.0113608521147067
-0.0155999107829084
-0.0155023286392046
-0.0110997172144791
-0.0046619785949395
0.00126073722788212
0.00471822880689538
0.00472591608553074
0.00181000739555604
-0.00294635876872391
-0.00811870649851155
-0.0117022996752947
-0.0122104619311166
-0.0104131116281424
-0.00721882983018399
-0.00310855638526443
0.00167545743987384
0.00649764721650369
0.0104652668105622
0.0122447537519037
0.0118689451799945
0.0104799801604467
0.00844214241137155
0.00621408578959846
0.00392373448999734
0.00213980797499729
0.000835133626116837
-8.27791334484262e-05
-0.000544072268754006
-0.000222106511497502
0.000499520781157244
0.00163056538902068
0.00301921837887035
0.00434636310614147
0.0051815027332424
0.00502772483701889
0.00322174387330912
-0.000394349073973886
-0.00516798042806053
-0.00990436989766838
-0.012034377404565
-0.00926523565472756
-0.00304510759680535
0.00248211389887119
0.00465053199564913
0.00344762263700029
-0.000185476223001015
-0.00408106007634762
-0.0075819898836112
-0.00912145077315807
-0.00734387364751878
-0.000728485791516544
0.00868105772563488
0.0155173267881706
0.0146638226716311
0.00652648148703563
-0.0039539490525311
-0.0107796565081693
-0.00918647095614714
-2.45203704851661e-06
0.00957128348580723
0.0125122093979175
0.00850816439856266
0.00131835963357948
-0.00605665729079149
-0.0111586429653547
-0.0125739922736761
-0.00983941933584409
-0.00470340993519188
0.000490025353903965
0.00366793445361704
0.0044853147581613
0.00425040336777508
0.00364542127164582
0.00253989000102784
0.000128108912216711
-0.00332673485717531
-0.00671102920177839
-0.0088013599276271
-0.00732176369615731
-0.00189161521336942
0.00576931790744166
0.0117363211078157
0.0133174658511893
0.010974516145985
0.00663965271698361
0.00292691097903279
0.00120499536180538
0.000799375275940896
0.000915671888412547
0.000909412195277335
0.000351558350282605
-0.000259284104101126
-0.000907602001934012
-0.00153579983746713
-0.00226752526205072
-0.00290826048984978
-0.00362119171864819
-0.00401145581042238
-0.0044055994334348
-0.00398418059695565
-0.00239775642218708
-0.000605816344516782
0.000905082783244651
0.00145742932017542
0.00101267739222045
-0.000432277620372466
-0.00172765284761223
-0.00283530475255861
-0.00375987076997578
-0.00407244054927165
-0.00353441496256998
-0.00217424222739478
-0.00064286415294344
0.00130933279576466
0.00236136723836768
0.0020065498508479
0.000656407768503064
-0.00121440660671654
-0.00267530249842348
-0.00211148688349756
0.00215018343897645
0.00918985754494749
0.0139877897971758
0.0128382799899848
0.00699558472815859
0.000829646486772484
-0.00253842337007337
-0.00372226298848385
-0.00510751387192624
-0.00960918151453872
-0.0183366827133303
-0.0280099666879696
-0.032205555023805
-0.0241151939982099
-0.00476261176625586
0.0151739140371873
0.0257077340658929
0.0258831134148859
0.0201054357916048
0.0139573086374774
0.0100022361666206
0.00843744936097517
0.00798146008380746
0.00764833882284956
0.00735272446140239
0.00666622884794004
0.00515686153892237
0.00291982189003603
0.000486874145452398
-0.00217381050087742
-0.00443598470299469
-0.00597843878642995
-0.00726204323042978
-0.00891808026958197
-0.0112118557082029
-0.0137240518626582
-0.0156761543802218
-0.0160309204529852
-0.0148124513527509
-0.012463887371856
-0.0094958608396681
-0.00533555157741614
0.000673841926789649
0.00647729659641816
0.0107582022657841
0.0130617928544354
0.0134800079836599
0.0119058012158609
0.00910310884406398
0.00609150371515749
0.00370830256049111
0.0016346516859453
0.000333892149145323
-0.000144264838659894
-0.000481272000584527
-0.000882701308818933
-0.00154358023595628
-0.00262830331722523
-0.0035568340268017
-0.00440231967601722
-0.00467118835913283
-0.00329386318075577
-0.000733678113262284
0.00218302426349433
0.00490898762102286
0.00592541683075004
0.0040417077944368
-0.000840179657563269
-0.00648120358251252
-0.00983365122033939
-0.00833965835076178
-0.00205367840392489
0.00432249751193365
0.00660937106893427
0.00476500772200299
0.00135245934065498
-0.00143725705055234
-0.00256805256698583
-0.0018315555440682
0.000837813378748578
0.00400914061169468
0.00636121231154517
0.00785622136990351
0.00758157407057211
0.00574737511764674
0.00250075242683632
-0.00113957618919293
-0.00446525304498619
-0.00534544865721102
-0.00296661348247428
0.00192104173815634
0.00673144955771928
0.00764543244550706
0.00349961605030499
-0.00449733427132639
-0.0140616622705793
-0.0210028623299813
-0.0205624681829437
-0.0121357580333153
-0.00163941030370662
0.00557021495469615
0.00929088826323222
0.0113030485178954
0.0119113672885941
0.0105596867222862
0.00764850689716572
0.0030709315945908
-0.003202820847543
-0.0101773723661894
-0.0155600140588585
-0.0169980493613038
-0.0118681711932772
-0.00150253695398079
0.00966638742924806
0.017040381804108
0.0190648187763188
0.0175135431455198
0.014290410372825
0.0102422945655484
0.00621502610599537
0.00251006709228241
-0.000137441451637323
-0.00231063980243594
-0.00401250973072137
-0.00517039769065614
-0.00588593034930947
-0.00619654691264944
-0.00623460287610673
-0.00625797087259973
-0.00605614151025422
-0.00478123254243997
-0.00301272123558103
-0.000730375300854921
0.000736936471805555
0.000723987036926078
-0.00111714486931279
-0.00495162913928369
-0.0102873597429441
-0.0167708787780463
-0.0223283375326128
-0.0244491254981819
-0.0199030313286396
-0.00762206133947645
0.00867847837912638
0.0215266698973924
0.0260625775174838
0.0227651664163058
0.0161541033115943
0.00952478458997611
0.00430632366555544
0.000656949543476097
-0.00153237826640552
-0.00254201395702222
-0.0030572188897703
-0.00312474814253057
-0.00288349057232524
-0.00215303837402722
-0.00073533457104966
0.000998002429103565
0.00253257916307701
0.00248883835488158
0.000941645149727502
-0.00191831026753398
-0.00478674871387509
-0.00526499820452313
-0.0024896817721406
0.00233385893134948
0.00665969028764476
0.00896030384463047
0.00895651284364351
0.00733515847744975
0.00444174002494375
0.00155596141307614
0.000103749161195933
0.000829849421497447
0.00319453112714794
0.00565203086449729
0.00651424483722864
0.00579525426028661
0.00363698369788763
0.000471379024734337
-0.00397577714587531
-0.00990557046102548
-0.0172129745652687
-0.0241604507091161
-0.0268947904438668
-0.0217381756607721
-0.00886376418645661
0.00470636145875193
0.0131104054621616
0.0147749951877162
0.0122644084547394
0.00900489269331443
0.00685368678100794
0.00568678779861038
0.00553825417057533
0.00641622261889557
0.0079298822662574
0.009274204097301
0.00979591535477685
0.00885421903570982
0.00711827970214926
0.00519368136430095
0.00276289383625368
-0.000861825041654682
-0.00549746831719821
-0.0115141842705859
-0.0178806108032454
-0.021921722202173
-0.0205701581397785
-0.0146324103336149
-0.00833270714721055
-0.00511896542041847
-0.00510833111137476
-0.00588499387946957
-0.00689576097247575
-0.0083980693552275
-0.0101429995925188
-0.0106758504207638
-0.0082847861182547
-0.00408304620003015
0.000956103440895339
0.00536968776055669
0.00917606186349329
0.0127212965006321
0.0159458602321801
0.0183825874801844
0.0196348752423578
0.0195451261404848
0.0180571889970079
0.0159588418959331
0.0130877781368326
0.00974361871987632
0.00596139978566801
0.00137117892729935
-0.00450715023400241
-0.0114724481270748
-0.0178090944358279
-0.0216494482848504
-0.0220737756388746
-0.0190796011768766
-0.0145020973542944
-0.0110136063685818
-0.00823924160264549
-0.00484525362685928
0.000404414083403173
0.00578831998499032
0.00895256102239416
0.00940810312701253
0.00831781182119074
0.00772096264949733
0.00863634172695825
0.0101599664231516
0.0112513169982537
0.0114371092520005
0.0109926418180193
0.00993918003575147
0.00883310541757907
0.00753682436490968
0.00636915600500044
0.00539901558503933
0.00445811585562339
0.00355606752418391
0.00248610923426639
0.000781809432816704
-0.00132515553779117
-0.00449837286611647
-0.00878899653035747
-0.0145974334197424
-0.0213154495792083
-0.0247445077422818
-0.022377218554228
-0.0147897289789046
-0.0074536301888989
-0.00470623608277395
-0.00355752574943444
9.63108470498561e-05
0.00544744677782365
0.00892781577272093
0.00948203455361182
0.00865249892303377
0.00694087655428599
0.00529753753857447
0.00379082178480173
0.0023070482515587
0.000882073326953551
-0.000744039942389964
-0.00271752685771171
-0.00506659683845632
-0.00764185963202992
-0.010385176913539
-0.0119412955954606
-0.0110603231286044
-0.00704661976586077
-0.000942487132475923
0.00465038806741904
0.00743915813072957
0.00723106729551156
0.00522153382413849
0.00332435088571579
0.00322459000007561
0.00452395787098139
0.00576546551780696
0.00576420252559141
0.0040768952062546
0.00169040187614387
-0.00110348586115454
-0.00309670195132341
-0.0036547169548532
-0.00176454306747352
0.00056824230012204
0.00282232884199647
0.00398058837170609
0.00437722993831065
0.00443477154395846
0.00312021956330648
0.00130523369207816
0.000378954417798609
0.00103749017082738
0.00267600081641337
0.00396403837971236
0.00449450653004011
0.0045116565471776
0.00341062207184288
0.00104300980131434
-0.00322432147080824
-0.00897201086204781
-0.0139489984916966
-0.016194344102239
-0.014695779796621
-0.00977270498351443
-0.0040656812482765
0.000627329083729904
0.00465505602847394
0.00977102198441848
0.0156674956852421
0.0207721068558551
0.0220096823636667
0.019069176650246
0.0138211189466959
0.0080142812681338
0.00264487787263936
-0.00146325323602969
-0.00394329411787535
-0.00464723347857271
-0.00439499490345082
-0.00433236927080667
-0.00667687602970437
-0.01191865941476
-0.0186092173128764
-0.0226130375223694
-0.0192098458128443
-0.00991047445471447
-0.0015339186612991
0.000513554170141462
-0.00357061340960263
-0.00822909618316282
-0.00887572949432555
-0.00324567373960731
0.0068073908958682
0.0151125629750196
0.0179047146356758
0.0159373473299625
0.0119347549574773
0.00769396900398163
0.00440209027341147
0.00188444445705573
-0.000396129387985874
-0.00261267017482039
-0.00521406825919817
-0.00875796458573037
-0.0129564941507202
-0.0164575556381897
-0.0179199184304103
-0.0160077551391535
-0.0108052273995163
-0.00444837887223862
0.000843114939318002
0.0039545327012175
0.00503202959098574
0.00479159292271324
0.00374284520926299
0.00284561601398642
0.0030596590528317
0.00397623166682813
0.00570204214103658
0.0078812325284378
0.0102677810871649
0.0115982175978431
0.0115203890579817
0.0109164159038394
0.00934986752953218
0.00681172965702039
0.00344284052877121
0.000463385990135383
-0.00243052692735047
-0.00491701482592469
-0.00645037799290217
-0.0062715057787747
-0.0036544103155516
0.000537025279140782
0.00443345438133889
0.00765103903173635
0.00885069722835092
0.00789568334941436
0.00565089622634051
0.00269512954625533
-0.000682653350913513
-0.00432573569782998
-0.00722234742059195
-0.009080906502601
-0.00974717621567521
-0.00931856362581186
-0.0074811266385664
-0.00416046312259968
-0.000852455942498266
0.000198858656961932
-0.00265597347309064
-0.00877037680639392
-0.0145889146041072
-0.0153839741068108
-0.00853816536614724
0.00308960632109603
0.0139938784031264
0.0200443823123223
0.0202857923177998
0.0162524767782515
0.0107893592631445
0.00516973431171191
-7.81350688062775e-05
-0.00398348263837941
-0.00619283933772251
-0.00623406619495705
-0.00447614136364567
-0.00223322344035138
-0.000962288161394975
-0.00148749167343948
-0.00253267207847024
-0.00256428476591579
-0.00196753938963408
-0.00108913418480962
0.0004943818707198
0.00297817503855174
0.00539787182848817
0.00659718377731307
0.00556554561718872
0.00264091101997604
-0.00194458975386477
-0.00699613458088592
-0.0111064657265958
-0.0137981733403767
-0.0159226719714192
-0.0185231795872754
-0.0194596892777133
-0.0143999346526286
-0.00300956959919307
0.00896571000990158
0.0159930817681467
0.0179444819877567
0.0175655700897021
0.0161239015780433
0.0137304060475029
0.010299236635674
0.00562992166290865
1.39397512587429e-05
-0.0055008114123476
-0.0102941502758209
-0.0133594586688073
-0.0148102342666511
-0.0138944586529522
-0.0101178284817434
-0.00420228600743882
0.0027892045594446
0.00843550243779089
0.0117430784141316
0.0127409399864935
0.0119273749356797
0.0100247907824852
0.00807841524818479
0.00631384670908864
0.0046304971248059
0.00265216542042036
0.000160249277564722
-0.00305964016476656
-0.00833267002934193
-0.0145944628161166
-0.0184545486829684
-0.0172608517879632
-0.0111835383202596
-0.00418097627317706
-0.000268372783119827
0.0010219778387508
0.00245544693935404
0.0049481845559765
0.00710545558745303
0.00769679499900724
0.00680113875766514
0.00525995507381023
0.00421719484687002
0.00379378688002365
0.00356623365671034
0.00312215389954236
0.00204537657377348
0.000522505687121799
-0.000704373396422959
-0.000816630692578113
0.000914868394166791
0.00389167808811805
0.00642694020300725
0.00780398072911657
0.00726080970322657
0.00537862223857115
0.00270133366785137
-1.59899116793545e-05
-0.00254830470249847
-0.00455720482534167
-0.00540532476786088
-0.00541493604717491
-0.00532629210065741
-0.00552210114797511
-0.00687728367335397
-0.00978963477405133
-0.0126080989899956
-0.0130861595514282
-0.00863340344359202
0.000914875534161517
0.011237628475994
0.0174790914889907
0.0189841826339099
0.0177536088154007
0.0145613587198722
0.00936748053215545
0.00183387060477259
-0.00769207988590077
-0.0174566252726327
-0.0239666723251199
-0.02200346739671
-0.0109041844504495
0.00199621334353183
0.00876051795527446
0.00696491285089558
-0.000315770469436955
-0.00987738345189099
-0.0186829527426539
-0.0243840294596341
-0.0243937349671361
-0.0158722876622845
-0.00122943427721633
0.0129302127777475
0.020695777009713
0.0215982269837834
0.0184824219276688
0.0139881083132361
0.00962261240653792
0.00561594786970532
0.00168239136122545
-0.00217685282870228
-0.00575687307983391
-0.00919936523480881
-0.0124026945536246
-0.0150233273760958
-0.0163328144680212
-0.0149416149423302
-0.0098497828984883
-0.00153039240007213
0.00789377812772372
0.0155619273486472
0.0192967360828706
0.0189171757849711
0.0160520676014008
0.012709153673917
0.00848886827518011
0.00434560792718841
0.00156223274070568
0.000394906592617559
0.000702258074343905
0.00180556366241968
0.00346777332252836
0.00507645102683529
0.00541152660870909
0.00470751857975287
0.00373415878028066
0.00297492980438576
0.0022111720349401
0.000617142509146354
-0.00189224254937698
-0.00489447194649244
-0.00783792949618852
-0.00999345467311665
-0.0105721898144779
-0.00845184445569414
-0.00413830071482811
0.000815422169514943
0.00348112661047291
0.00332796099945638
0.00130167195430548
-0.000782088990773599
-0.00161837561319899
0.000161972968333631
0.00408802735864414
0.00723516412168476
0.00740506265059132
0.00406188158345899
-0.0021100579467311
-0.0090319083692564
-0.0130440523504989
-0.0103654766541262
-0.00262239190466843
0.0034133853851948
0.00181560382299802
-0.00590416333432919
-0.012536743824997
-0.0134506998251505
-0.00805786356384834
-0.00117754179550546
0.0034654429716068
0.006806216784285
0.0107224510799662
0.014131198993522
0.0141560059201625
0.0103177866294462
0.00375623076713924
-0.00317471200741296
-0.00991134445062684
-0.0152710727335139
-0.0173381504077909
-0.0159066772897285
-0.0115696822581364
-0.00647704568303805
-0.00278448582907171
4.28306826992493e-05
0.00290667081119213
0.00627771975356577
0.00913916499908391
0.0104559783914099
0.00999829799861923
0.00778367681000424
0.00325877414905554
-0.00203837229972523
-0.00577098712303665
-0.00602121570407665
-0.00344271732505906
0.000628550289660582
0.00491446485599086
0.00802789616919288
0.00962440978306348
0.00962315584209952
0.00879367750131045
0.0073269235685438
0.00555376831811575
0.00329663474334069
-0.000813639237217855
-0.00683312562443268
-0.0130905765497156
-0.0179467931048975
-0.0186208509662857
-0.0130119122518719
-0.0026100481368832
0.00729128481919916
0.0120078361131224
0.0103900625019111
0.0052747505607989
0.000813142442786778
-0.00103627164201022
-0.000334828405343764
0.000313796747309827
-0.00089888276245747
-0.00355001781398714
-0.00587543073837638
-0.00614399446754289
-0.00348287923237837
0.000753565876710973
0.00515216300301702
0.00837376033049507
0.0097088126966
0.00905543103285608
0.00776175676599569
0.00628213526299667
0.00471226173305085
0.00351053835000897
0.00262466263434531
0.00187274553953917
0.00144045465571062
0.00153141104169129
0.001988114299834
0.00229275440993683
0.00243930917826837
0.00262059684051141
0.00154858435032786
-0.00112181665539649
-0.00527019082795894
-0.0106973010892422
-0.016558934707492
-0.0194981932016565
-0.0152379806690333
-0.00438937876451553
0.00575394666996246
0.0108378199665664
0.0119774177474603
0.0114198196239982
0.0109585130060713
0.0100444757751344
0.00782967041417731
0.00348341356914236
-0.00226178885447781
-0.00838412983109358
-0.0127797504584184
-0.0133092845398504
-0.0102000620506037
-0.00689685772357138
-0.005718407341876
-0.0073802144110013
-0.0105823747386383
-0.0140416708345409
-0.0155203124973934
-0.0116746598577723
-0.00360005706278837
0.00393257938122257
0.00697616448960207
0.00572212752813787
0.00365569382286702
0.00303714931677676
0.00385822953525872
0.00462299968358739
0.00432904457299392
0.00265618590644757
-2.75391243013913e-05
-0.00131481620652026
-0.000294668060873854
0.00278034749120911
0.00560313750294496
0.00609475489447834
0.0041847792476718
0.00157795016132379
0.000352737259224164
0.00176906227117428
0.00475242262277735
0.0073316278034122
0.00884823499882315
0.00885936705818658
0.00746563022464539
0.00475901531905231
0.00115050660668958
-0.00252497265106922
-0.00579909593649085
-0.00832900351545377
-0.00947547074945313
-0.00874848813728901
-0.0058681063764372
-0.00129188157859812
0.00325260428602515
0.00659106680437517
0.00822861532700648
0.00811429970300074
0.00667294712847916
0.00445114027402232
0.00247827541179615
0.000902918741379676
-0.000442320586270924
-0.00116319666732746
-0.00154478185232599
-0.00131874788226567
-0.000623146588351409
0.00113499909145085
0.00283985389266693
0.00395751317851888
0.00504795775665197
0.00563597030212847
0.0062328294000152
0.00631365964525809
0.00583632411715873
0.00525492974659007
0.00457853094167936
0.00337924822441595
0.00138699839675267
-0.00130886324216793
-0.00518423857402265
-0.00978533978972535
-0.0139766934535323
-0.0167212569282791
-0.0160660583648108
-0.0103838710167519
-0.0023783478822016
0.0030549656695209
0.00303273604902985
-0.000307218469051907
-0.00273787132300905
-0.0028723682393056
-0.00149846650684093
-0.000197621252166286
-0.000270092197134763
-0.00163514594437959
-0.00317949273145192
-0.00426241482539642
-0.00541176375106116
-0.00784455177204189
-0.0110160806916914
-0.011216555260883
-0.00581114283383096
0.00461208444655902
0.0143687081099959
0.0177942045989036
0.0157241986735897
0.0117277970725378
0.00803753047440197
0.00529886722247332
0.00307985359359153
0.000766889775537311
-0.00198239244074536
-0.00532820935335531
-0.0101125519039028
-0.0159114689153093
-0.0207128450375178
-0.0213277069416358
-0.0162020548670546
-0.00695138263243942
0.00251176173259945
0.00809323554735588
0.00879866869982864
0.00808278729493886
0.0087613173616981
0.0109364218174369
0.0127977323212995
0.0119820735906356
0.00856047173694704
0.00342104942543367
-0.00155497899671998
-0.0047339043259628
-0.00617951154842191
-0.00529854958153551
-0.00245001712573968
0.000817452604344997
0.0032895738413431
0.00447915407947481
0.00490729748717022
0.00454611423398461
0.00347588609474341
0.00206874512237134
0.000283188143098848
-0.00193591956712735
-0.00424390812836961
-0.0058932876648046
-0.00725041055770416
-0.00869545536344284
-0.00929520927652562
-0.00882060249474832
-0.00628571643604366
-0.000743749675347202
0.00720680189581443
0.0137348940023465
0.0153647489122946
0.0127858244211025
0.00906673005325402
0.00627798487128661
0.00473573298365984
0.00358955468660445
0.00256823324427533
0.001327970216356
0.00063156399679514
0.000181942021802345
-0.000738866978246086
-0.00212498121776736
-0.00369270066952135
-0.00427392121406907
-0.00317487373579903
-0.000265233215387483
0.00309029336071767
0.00527311844398937
0.00591985222790248
0.00524736130654436
0.00388426677456959
0.0018682841411454
-0.00195503751420549
-0.00756883869365969
-0.014958981691128
-0.0229737051924352
-0.0299346412458813
-0.0334461445042124
-0.0304626397669832
-0.0196436759648422
-0.00388338862052385
0.0104975628645291
0.0185664159812931
0.019555508408471
0.0157377555209675
0.0106886031736029
0.00571980778610661
0.00173367070102629
-0.000796335914934687
-0.00177067834886503
-0.000929989652186187
0.00164715276418924
0.00512544739908727
0.00798819957550976
0.0093405094064252
0.00828433275249521
0.00507427026612734
1.53956548085681e-05
-0.00673008477806519
-0.012825605625637
-0.015204850650034
-0.0128909893786168
-0.00881094624626617
-0.005765277658922
-0.00393724943935662
0.000456428002690698
0.00910701110266786
0.0177822327849306
0.0216270135732024
0.0191637669297876
0.0134783957392863
0.00695083924953703
0.000605541497249212
-0.00480676008572854
-0.00948827013329764
-0.0130243344011568
-0.0152546665358622
-0.0156480271354708
-0.0140305964011013
-0.0113163558536602
-0.00729222582762217
-0.00136299247834801
0.00645386942680273
0.0130661719814243
0.0151397520236973
0.0127107544848983
0.00859809925674708
0.00507322877202223
0.00358117677299095
0.00408798862803037
0.00518913300919019
0.00582859028138691
0.00553947626083284
0.00516133257334738
0.0043619851347453
0.00255451897009601
0.000609947413669106
-0.00167022983324162
-0.00361238081044644
-0.00432492731725117
-0.00373381551941234
-0.00239953120148409
-0.00157826298286403
-0.00219290897810606
-0.00424349709859472
-0.00735966780470099
-0.0104364212580343
-0.0129988400671089
-0.0137623328326688
-0.0113202723186034
-0.00615255834744318
-0.000300601411738139
0.00442463760957561
0.0064311913172223
0.00579125849587466
0.00442877520636899
0.00348077212273211
0.00305770195654587
0.00311811075291465
0.00324494185607151
0.00310813130997399
0.00300821691729077
0.00237549864491221
0.0010698043768332
-0.00108755864317457
-0.00429803123731809
-0.00843163135733858
-0.0120792790816867
-0.0126613256543977
-0.00950437759297557
-0.00195893205434278
0.00771752029093428
0.0154456891369128
0.0190725047999867
0.0183691045948145
0.0144427675486764
0.00907716528096151
0.00290545928748336
-0.00346830608159267
-0.0092904357931863
-0.0124747481213294
-0.0104321309067689
-0.00407308675277995
0.00205751448138226
0.00345623876685576
-3.28845338937152e-05
-0.00535549981513884
-0.00866665123787779
-0.00754245121808582
-0.0027925989567922
0.00296761118210028
0.00709693762749862
0.00960295641939282
0.0106064216284554
0.0105689828757173
0.0103187582132286
0.00991396610118633
0.0100163480904322
0.0103737489014284
0.0102613071899545
0.00957408445346427
0.00832411697653378
0.00678460725776814
0.00480650893702979
0.00221838368417446
-0.000911645093698304
-0.00526054498140455
-0.010828485356011
-0.0171492322038405
-0.0232174039224623
-0.0270141913693521
-0.0271547533222782
-0.0219635147882228
-0.0126898894292931
-0.0041186557036063
-0.000543757670881456
-0.00264098694524036
-0.00500889893759064
-0.00198525779007951
0.00692866951397375
0.0157837618955178
0.0182597865606503
0.0152375365895511
0.010278016906139
0.00680628095329466
0.00524841649723572
0.00476974003295268
0.00465312504301425
0.00429786414772925
0.00347517034859647
0.00206397490414212
-0.000156562261897688
-0.00377984809459545
-0.00966469044279236
-0.0173973975677153
-0.0256206759215727
-0.0307302134062787
-0.0287621455651289
-0.020112012316627
-0.0100964341543004
-0.00297851675627639
0.00116252761278099
0.00407978979582417
0.00741308105411056
0.0104357726906607
0.0124772444407169
0.0128416021458322
0.0118700634319821
0.0101138459625854
0.00856608399758733
0.00773188825697528
0.00734437359437526
0.00713738873500331
0.00752485044829
0.00785628210610906
0.00765597360669919
0.00721541349028479
0.00649916505159618
0.00554879358039227
0.00437555700284462
0.00292445913367446
0.0011653228785761
-0.000597350481157985
-0.0021206882280817
-0.00420271466220858
-0.00642578420769882
-0.00862709521198368
-0.0102287760025585
-0.0115206162970158
-0.0116567149894189
-0.00985305055180743
-0.00507783948969049
0.00203090823416837
0.00916198905950804
0.0130339212856977
0.0132758001286945
0.011475505571061
0.00916326635108095
0.00706982515330117
0.00462486408376043
0.00242785959704339
0.00115854789216993
0.000733653672671457
0.00197893155280935
0.00368893379658592
0.00523190971435817
0.00606421727928014
0.0053719267578958
0.00248564382594761
-0.00280974547833764
-0.0100648132302565
-0.017770938726578
-0.0248734750716919
-0.027923732538533
-0.0249848856372786
-0.0180656882588643
-0.0119863519476275
-0.00909947814396274
-0.00802214578055537
-0.00599071851236966
-0.00378023023256119
-0.00275146901623745
-0.00175939779693028
0.00148653456340709
0.00770731503240194
0.0146531960057601
0.0190767072998534
0.0190236333892829
0.0151413540195551
0.0099960627631371
0.00571062440324963
0.00401080238062867
0.00419199087087377
0.00316381680962911
-0.00116843477905698
-0.00849647723668684
-0.0147996009446222
-0.014080502165456
-0.0054094362083189
0.00585876904804618
0.0137754484795508
0.0169405109633772
0.0161167732645341
0.0120014497852805
0.00681364311860019
0.00251745346304894
-0.000213992301889258
-0.00163287425912474
-0.00273805167625495
-0.00359454148850734
-0.0039917674680684
-0.00381544385211512
-0.00316681712102915
-0.00304270251052429
-0.00354864444285967
-0.00424042718153738
-0.00536413986813559
-0.00709440821682215
-0.00897427971225582
-0.0109710698582271
-0.0129750745863924
-0.0118461435860824
-0.00621451968337613
0.00349260844004226
0.0122700881619605
0.0161899303767973
0.0158308726131761
0.013524983863837
0.0113636313781639
0.00972488940084242
0.00892852197613834
0.00765049772035149
0.0061027112727176
0.00413240722280657
0.00167323748613178
-0.00161609921541164
-0.00543615376890374
-0.0089129095476882
-0.0114490986369073
-0.0121492988170231
-0.010696198054663
-0.0073770968115187
-0.00307848067783673
0.000829848394628002
0.0021655990044674
0.000913740229658799
-0.00272751587767686
-0.00735935301595563
-0.0113221211558928
-0.0127270016341923
-0.00995202128485579
-0.00381314353919386
0.003336233953765
0.00945693629094952
0.0135437490814003
0.0144423587773606
0.0130156513052545
0.00954687757461532
0.0049785413703567
-8.45967451913315e-05
-0.00494379779933719
-0.00853382118777356
-0.0096588841646384
-0.00813326442958512
-0.00607616036627766
-0.00554549579273399
-0.0070688140096657
-0.00694064283155067
-0.00394507515093905
-0.00160150576005457
-0.00267403743590908
-0.00490629121939883
-0.00416805133519857
-0.000426370080283565
0.00459814397404407
0.00903284148761469
0.0116720335344631
0.012500802675943
0.0116837226499391
0.00933216196252711
0.0056334671178271
0.000780317084556295
-0.00514182279148013
-0.0109642379094675
-0.0139782934510041
-0.0111444353295638
-0.00373750100624498
0.00350690244443965
0.00648844686965248
0.00556533337485088
0.00436260270106919
0.00388821412341401
0.00421283291430707
0.00484921744046757
0.00517404510718115
0.00538369189846518
0.00560112321604809
0.0047364409142667
0.00334285068949575
0.00166110173070808
-0.000285270990563537
-0.00234445958351545
-0.00445884891160366
-0.00645769077691026
-0.00742651744071644
-0.00707424833590844
-0.00539356806717058
-0.00348860145135831
-0.00193184626312507
-0.000611166763702266
0.000232692114211873
-0.000224265750476321
-0.00240406401395256
-0.00602724006841342
-0.00959432828004502
-0.0108422306686758
-0.00794053655078305
-0.00106642661002566
0.00698551603585161
0.0125556149447841
0.0139568539119336
0.0120919244475586
0.00831585235440015
0.00391763316493643
0.000179247891680941
-0.00182699320965945
-0.00159154030656364
-0.000325308667487991
0.000891970618033311
0.0011929442489435
3.72549230260246e-05
-0.00215631918164142
-0.00423925632518693
-0.00533068436633829
-0.00515006201830071
-0.003804739472477
-0.00161058833430004
0.000969103830947455
0.0032774452764312
0.00429508514257854
0.00422826016810685
0.00221157910675166
-0.000989957738849414
-0.00449374232534561
-0.00777894888563822
-0.00838488616223351
-0.00305677777728174
0.00728072032565562
0.0170724263199643
0.0216805391664368
0.0209975371922489
0.0174932940367623
0.0126820831706033
0.00720170180002712
0.000923365894213606
-0.00726550835301801
-0.0180237553920232
-0.0299163500789317
-0.0388871290963521
-0.0380557482799436
-0.0252569208301114
-0.00793871345238249
0.00541616997034427
0.0127840451073397
0.0159574298134467
0.0170337767015204
0.0172628640496085
0.0161460564259618
0.0140854779393182
0.0116169024237943
0.00849631399914588
0.00504473271062398
0.00157267363067323
-0.00211809138090575
-0.00531010162098195
-0.00771017550398306
-0.0081372395360536
-0.00570946165272054
-0.00112195458486308
0.00333193376787427
0.00552506209397912
0.00470001209654376
0.00141301071127819
-0.00337262315347622
-0.00889137294943574
-0.0145440736051662
-0.0194587730851544
-0.0217397680847141
-0.0201197834831198
-0.0155419015770434
-0.00921754142430369
-0.00221683167215261
0.00585866346239356
0.0145322989044598
0.0203752700368318
0.0212916946462083
0.0182752059254739
0.0137806888348178
0.0100824084077665
0.00729372248157886
0.00522130753917029
0.00363713133282998
0.0025538079502118
0.00212555096960952
0.00171105979176251
0.0015587032326636
0.00181812244377324
0.00201120034778436
0.00238856087109716
0.00303108278341694
0.00302778726925233
0.002326814448053
0.00134446286834988
-0.00032379738364373
-0.0023637222998292
-0.00420984756396225
-0.00569093434692847
-0.0068739831633035
-0.00715099239739566
-0.00686485466102566
-0.00645931599736985
-0.00633701014397686
-0.00558583287307348
-0.00402957264814405
-0.00170464661851833
0.00100456628963786
0.00311994195874289
0.0042883541512501
0.00395463432350335
0.00238185728432365
0.00149961228422651
0.00116068330291569
0.00188207986505209
0.00336877889399065
0.0051280491330468
0.00529763358860961
0.00363356067573304
0.00115951365149481
-0.000872412760920141
-0.00119117796629922
0.000642213587026035
0.00328323887201972
0.00436406038125906
0.00178356051172063
-0.00529038758583881
-0.0152763973150763
-0.0244358883800934
-0.0285423361396108
-0.0266939623695173
-0.0212812865220463
-0.0137365468080192
-0.00567154996933749
0.000591970076087228
0.00495319767294776
0.0107453600371146
0.0194230868425862
0.0262749995383321
0.0265692943377457
0.0202413817558032
0.0115207771677155
0.0035983619901617
-0.00285077504467326
-0.00764796185607924
-0.0110287921899057
-0.0131179089414115
-0.0134307382609054
-0.0108725299928293
-0.00507520692821989
0.00255550823919079
0.0087610299189612
0.0116905382681176
0.0113340127478451
0.00926557020560805
0.00730554853559471
0.00460841465422144
0.00244993146393391
0.00140645454552476
0.00130184394196216
0.00145318145661481
0.00171679903964556
0.00185883382538511
0.00170544920292056
0.001571205874649
0.0010203756936934
-0.00015811751298637
-0.00194857632314291
-0.00443377747926138
-0.0076068127804819
-0.0109237563691351
-0.0149704316591115
-0.018625570351203
-0.0194469724315108
-0.0162925243293486
-0.00832274369975426
0.00176729546093091
0.0108391341955033
0.0169296366476886
0.0189763071876909
0.0178191194621072
0.0147701891851361
0.0108186676900341
0.00610717018040012
0.00125639496805806
-0.00338717257358072
-0.00816800311147258
-0.0134667738510987
-0.0183279993416341
-0.0202025691223185
-0.0169713090254177
-0.00861566313233904
0.00111800401079702
0.00888668569281894
0.014034693275696
0.016572090276917
0.0164498065264641
0.0138740445619245
0.00935512838288484
0.00385911285557702
-0.0012423144330285
-0.00399792778145883
-0.00310917090719903
0.0016369846794028
0.00715338873081974
0.00984310904500466
0.00954991367331753
0.00777051174114217
0.00534550807227054
0.002424821882746
-0.000822106585420439
-0.00445575829501133
-0.00834886260733056
-0.011850102702084
-0.0143034873833615
-0.0145063698421693
-0.0123459843699636
-0.0092658074043773
-0.00775848255684407
-0.00946449199825833
-0.0124520132895909
-0.013839860207352
-0.0123945973721282
-0.00767063071676991
0.00116655641788707
0.0127587563073645
0.0217114682524408
0.0239479516702178
0.0203388103200113
0.015280059991659
0.0110391338656837
0.00845284184635598
0.00696736679947872
0.00628908838282009
0.0064903879130748
0.00653985126688949
0.00641695702101726
0.00624228399187729
0.00527916034583938
0.00320405611142759
-0.000544328483695094
-0.00638620122156432
-0.013899592125504
-0.0221440291624622
-0.0292615334250955
-0.0323103788764178
-0.031205920866798
-0.0289511382178068
-0.0275168069044894
-0.0247690813942055
-0.0183070092434998
-0.00839013532500136
0.00238600717584494
0.0114610958664128
0.0170952740985015
0.0190975130350315
0.0184689767130008
0.0162316899584237
0.0130317083644654
0.00930233142192579
0.0058027656324455
0.00361379914999157
0.00282517542266246
0.00266113846967966
0.0022929900488825
0.00155251010600331
0.00118720809747165
0.00253351216773387
0.00571461929304973
0.009572816161149
0.0118513493299608
0.0115752244886155
0.00954023488102074
0.00748493037695364
0.00601499008832735
0.00453024398849213
0.00314467840640055
0.00261489360749224
0.00310715329606624
0.00351212564101414
0.00363914883188394
0.00355221392001978
0.00380523000424255
0.00422989917263206
0.00447649660587915
0.00452466526146409
0.00393585086314417
0.00229161637977957
-0.000413659113072311
-0.00363355617973496
-0.00738065480999712
-0.0107814191563131
-0.0139638879150836
-0.015260243934302
-0.0129821333775281
-0.00727589911882381
-0.000469554039387994
0.00434442429025223
0.00659110855437074
0.00689431999453319
0.00596206957678979
0.00477336227255869
0.00429491798706902
0.00344316478125224
0.00301785874150895
0.00316085932944164
0.00291849803493996
0.00227548766281705
0.00043182700358002
-0.00217112409698269
-0.00468767416968789
-0.00604354488662722
-0.0063119730708823
-0.006608366512906
-0.00687796225193989
-0.00743030209124876
-0.0084182938452475
-0.0102371163539905
-0.0129298509625534
-0.0166742139732207
-0.0205418030525953
-0.0220896238735204
-0.0190821007921595
-0.0117645968305808
-0.0030907361769059
0.00348820008879017
0.00678331278885312
0.00666855219857126
0.00301361677765488
-0.00396894652385862
-0.0130823234603535
-0.0206124908095352
-0.0210140838083926
-0.0121879812280461
0.00213793222005178
0.0163422980928041
0.0266433375162529
0.0315409816634445
0.0317269975315222
0.028765685438703
0.023888361885293
0.0180720754627203
0.0123538382841807
0.00798920799142341
0.00547957573798513
0.00390368777470723
0.00265567571015489
0.00150602930404756
-0.000332710453602016
-0.00177358708897515
-0.0021048784006948
-0.00206673282118554
-0.00227738448662458
-0.00254719527626212
-0.00293343214758018
-0.00250279776903781
-0.00149131363293932
-0.00130673401402164
-0.00165565045865817
-0.0016886258750263
-0.00167488592654418
-0.00203348428213362
-0.00286248235525696
-0.00376459797375819
-0.00452817732157395
-0.00538115045191288
-0.00585278878936671
-0.00541344817349582
-0.00426884657085008
-0.00319425804599387
-0.00271192630604688
-0.00310845996666322
-0.00449186538993181
-0.00567709927262946
-0.00575059825133891
-0.00365417509857567
0.0010907203282548
0.00755542075356441
0.0128885028292868
0.0154721222160312
0.0154634893232036
0.0129547931790458
0.00925493085312475
0.00578995262029555
0.00262971667693832
-4.82121055526618e-05
-0.00242412031232291
-0.00470907860259484
-0.00631260044169285
-0.00681082996962717
-0.00632638259638547
-0.00475219935326884
-0.00249734159760045
-0.000533124552232971
0.000476438936959103
0.000660870615764196
0.000355919639270444
-0.000457067951445115
-0.000540299769071213
-0.000314497254021599
0.000223812284134403
0.0012171280262453
0.00127588433500984
-0.000132510441935048
-0.00310841046683852
-0.00690710262996705
-0.00994160468225871
-0.0110752245358288
-0.00965247635946501
-0.00632246405194555
-0.003299303601015
-0.00390624851307878
-0.00907259462649175
-0.0162081380515925
-0.0199115683647822
-0.0156681698426612
-0.00379686444510511
0.0110679041838777
0.0230639031337416
0.0278184129781109
0.0262389185778076
0.022022426535246
0.0172765397636262
0.0120198885191571
0.00637579559291774
0.00062496125233081
-0.0058579816053944
-0.0124362611166722
-0.0175100290664773
-0.018499578138017
-0.0140249466283569
-0.00522945762705972
0.00302936749257636
0.00669238963506306
0.00599663591656546
0.00353597138929041
0.00130387268820403
-0.000359036744130363
-0.00152865787957612
-0.00236420209084471
-0.00239631051442222
-0.00147848917158669
0.000287595692566178
0.00243022098546418
0.00484033132563052
0.00635777094434769
0.00698311951432344
0.00662419004911498
0.00558077234143963
0.00442566112137196
0.00325968673329218
0.0021694458183248
0.0013042358766863
0.000888226054682327
0.000859704707038098
0.00105330918043286
0.00124513497268892
0.00119111099779535
0.00135422068227008
0.000983547818808037
2.62339933980579e-06
-0.00112148675182075
-0.00171908874514667
-0.000897051606490159
0.0010685848642795
0.00371191703349848
0.00629047838847335
0.00654800446225092
0.00336999855439047
-0.00261657960548342
-0.0111314793914573
-0.0211104473536745
-0.0292289667663149
-0.0315517554245455
-0.0262868729332387
-0.0162903455910265
-0.00552298317693032
0.00405486516059571
0.0123134808179786
0.0181782692680453
0.0206595521914314
0.0192204640967029
0.0149712340119603
0.00914444310754742
0.00349012268616593
-0.000155447148698856
-0.000849202330482768
0.000927388199549865
0.00309430931274051
0.00449575638541557
0.00397179559949638
0.00311101560889476
0.00252603500886277
0.00275059751728947
0.00325103976029101
0.00367414808372933
0.00420613952907831
0.00455999422176645
0.00490361125092605
0.00475387353814591
0.00392232808039403
0.00249733104709077
0.000916829605978331
-0.00111291413500103
-0.00438477275846677
-0.00845789444222058
-0.0127314314186103
-0.0165522019027485
-0.0191986279944047
-0.0191683238143777
-0.0148602158079069
-0.00627642059711229
0.00405597477535412
0.0117572793674969
0.0136190127768789
0.0099799660230701
0.00318821131941952
-0.00380613983365063
-0.00970132228124022
-0.0140997411038353
-0.0169571509170127
-0.018800289770044
-0.0184884480797229
-0.0131925924341206
-0.00413762943918707
0.00373308908346261
0.00796897105898038
0.0116572185492477
0.0170828103050173
0.0219179018454872
0.0225672541073455
0.0185483977277575
0.0123137073863385
0.00635739817214068
0.000805134681888124
-0.00322163866808306
-0.00540605893656668
-0.00450088533441647
-0.00123791419001116
0.00237935931439275
0.00528900804474435
0.00686133386373702
0.00695919425138566
0.00584483186080671
0.00378998802969919
0.00182343518233748
0.000232144899989903
-0.00118366122130632
-0.00297361307470737
-0.00560298722774258
-0.00814065571309748
-0.0102325664099321
-0.0112804753680047
-0.0108377952812666
-0.00836012102583766
-0.00479683878223501
-0.00180511781410238
-0.000587476835479821
-0.000452786618403217
-0.000704973122972534
-0.000264813862576955
0.00156448479195068
0.00434999471211273
0.00713943388980972
0.00932347682247083
0.0113343036558559
0.0117367460146672
0.0105772529943212
0.00835478582023992
0.00514199742628214
0.00127542834486071
-0.00303036299995939
-0.0079462118225581
-0.0127128560231762
-0.0156543450061104
-0.0154324125637972
-0.0118143097974313
-0.00634260986313226
-0.000743261344872996
0.00341585198942642
0.00464485347205157
0.00215790130513438
-0.00304404659085933
-0.00925556307709054
-0.0125217124484488
-0.0100390302193581
-0.0021569013031931
0.00697999981005627
0.0126032783812935
0.0141998373382633
0.0136584790408714
0.01159025180261
0.00894594040956179
0.00614138316150947
0.00343541371728544
0.0013713731457524
0.00028276067572813
-0.000164547572878552
-0.00147116580844188
-0.00434537850443468
-0.0083901036679241
-0.0120632013328859
-0.0142399962895117
-0.0146933624023705
-0.0134803480777465
-0.0108081259130104
-0.00584617460491021
0.00151052433880831
0.0103358218804364
0.0174500080384633
0.0198404713842275
0.0180254229469673
0.0135765028571848
0.00897585256367684
0.00522537606723354
