-0.0155951418500937
-0.0178619370959063
-0.0154003832540522
-0.00975449921977135
-0.00249761801715648
0.00512383577371586
0.0107885863691314
0.013315528536799
0.0132884956759948
0.0114985170873601
0.00810404116398855
0.00342477585871016
-0.00214157889299547
-0.00830831228903739
-0.0140668240879539
-0.0167157936258271
-0.0136031107970124
-0.00554540048885917
0.00210467568751132
0.00503024550463855
0.0044045931188858
0.00261079906116642
0.00303209122354921
0.0052792757964729
0.00774441488977175
0.00916695414705604
0.00854813731648529
0.00610587093778116
0.00301292648416968
0.0004998694095684
-0.00204691293294771
-0.00383077854350686
-0.00405433633594263
-0.00280138753805654
-0.000798563524272713
-0.00055279854073793
-0.00409172667788744
-0.0115121003070388
-0.020555546429756
-0.026759356589161
-0.0256367252445064
-0.0173358087229344
-0.00768678371287543
-0.00162973551654564
0.000887395484768699
0.00250196776673403
0.00481577746883221
0.00800706730092659
0.0109883070151835
0.0126359498571733
0.0134501081547324
0.0134638551912888
0.0127682802684708
0.0118861703769384
0.0108232607491493
0.00972384834462625
0.00868031469816928
0.00774857029487822
0.00709014491207004
0.00626597879035241
0.00518133097971815
0.00412063754706918
0.00295387282797237
0.0012498108118779
-0.000702736001037421
-0.00314513507113803
-0.00557742436612563
-0.00740326790129701
-0.00874409414327067
-0.00826880371679794
-0.00475074731129965
0.00119358952745121
0.0074301946382388
0.0102959489909112
0.00687940186021444
-0.00421620572875773
-0.0215693670782293
-0.0397777226115858
-0.0467801182470341
-0.0293872754532597
0.00803727165843327
0.0390386455931738
0.0446520259608007
0.031264592127444
0.0139304060367834
0.000196259761135405
-0.00924509666514559
-0.0157800363327884
-0.0195686728665845
-0.0191436601516395
-0.0104438843033197
0.00508555621028211
0.0182967480545185
0.0206241982238916
0.0132168561075253
0.00189702301102608
-0.00846850664776764
-0.0137353838791832
-0.0122431299627831
-0.00527459149549734
0.0014381447814313
0.00308594987988888
-0.000295964451037892
-0.00590262038853283
-0.0104539001357311
-0.011794049347759
-0.00851647711373256
-0.00260040826047514
0.00348006704394822
0.00751895578039253
0.00902801717788971
0.00873212182647022
0.00767913438691769
0.0057567976415842
0.00368494680553753
0.00206152173098093
0.00029817748400838
-0.00135821379461447
-0.00163807266337816
-8.71285799472774e-05
0.00242223305520742
0.00490735302663175
0.0064062927629193
0.00714794733339077
0.00643616966015571
0.00508961008419789
0.00372292201447357
0.00232336223160222
0.000407240103794921
-0.00165142874766697
-0.0039326773090105
-0.00649233235346065
-0.00916355470642652
-0.0123306364267909
-0.0152990128443881
-0.014621672414346
-0.00682450947638983
0.0055790340616392
0.0157501236286449
0.0182016808936246
0.013723172440726
0.00664417128897236
0.000913058338985073
-0.0013020928891669
-0.000370644252910068
0.000761609844791956
-0.00048075320178518
-0.00429508306876432
-0.00790676370095824
-0.0100167480684363
-0.00922038275049825
-0.0057092958536266
-0.00042434171946211
0.00548570773568732
0.0102639906141201
0.012890401498079
0.0135045853846757
0.0129538316648486
0.0116825825585386
0.0104569249394848
0.00980764522964964
0.00879757775873828
0.00633293249463486
0.00189571973491456
-0.00588066688816771
-0.0186713452762165
-0.035370746758626
-0.0468469977257368
-0.038399999852601
-0.00961339540720144
0.0172072036828677
0.0232043541471263
0.0149124906398772
0.00794577708156154
0.0078218924841585
0.0103603064857509
0.0099924342694021
0.00573569470022473
3.5455399387744e-05
-0.00372129847961857
-0.00370092745609167
-0.00116869709896247
0.00214198472303359
0.00442990061924338
0.00454758817028692
0.00157706737633355
-0.00484417341637537
-0.0141033684332246
-0.0241860455388118
-0.0297736305763951
-0.0242744972903076
-0.00841165317933034
0.00794287470377533
0.0156379410950354
0.014837753826539
0.0112649155420611
0.00835350109374314
0.00666462407289121
0.00520373140541308
0.00446012910168656
0.00560789727571951
0.0082891880345118
0.0114220373325894
0.0140357163860849
0.0146850611940382
0.0136387996825639
0.0113406337522466
0.00892058903835844
0.00688331491692752
0.00436756080495509
0.00100679790122953
-0.00405460350946732
-0.0107239666180748
-0.0191637687702953
-0.0287064740169215
-0.0364233578382947
-0.0377694943507791
-0.0285378658233356
-0.00994455609981816
0.00877651303493098
0.0185410574359517
0.0183891400075312
0.0130359200260156
0.00663492157835119
0.00109750654175263
-0.00358551972173772
-0.00791782023716486
-0.0106590571448189
-0.0101103649737961
-0.00703901006067824
-0.00324634344734431
-0.000239790530061024
0.00345032834087958
0.00847645860838192
0.0144183130747659
0.0190381806405871
0.0207211260682609
0.0196872897533188
0.0163069432651616
0.0120515240845288
0.00762859363197689
0.00302548844648392
-0.0021970856692982
-0.00689325146916765
-0.00885949815359365
-0.00726154414796794
-0.00340694250121181
-0.00172454302114268
-0.00543242569949453
-0.0160095001029746
-0.0310831073350747
-0.041430805663325
-0.0330784174782599
-0.00676122610044054
0.016511768434207
0.0206224932872515
0.012224641583494
0.00670115903278091
0.00847550401586813
0.0127709631227462
0.0145901975914512
0.0131424791064222
0.00972789752233113
0.00652836270484602
0.00401420186289492
0.00233005991392655
0.00146602996482709
0.00121413288665112
0.000948973064012736
0.00051539059803024
-0.000408681990165367
-0.00337134019690843
-0.00874373871378336
-0.0153414425679923
-0.0186955219148456
-0.0124364305860841
0.00243183032115621
0.0162613914473047
0.0211186527795266
0.0180186957233764
0.0119975178478131
0.00668490550334099
0.00264301024131088
-0.000961697583841362
-0.00424805229423142
-0.00691319907007026
-0.00830775997617349
-0.00705898241382535
-0.0037590380750353
-0.00024018006826029
0.00143139163412495
0.000359682832705394
-0.00282598241249882
-0.00712945585904292
-0.0105479881908292
-0.0105175688739669
-0.00578977283913143
0.00244280638097577
0.0102852151851014
0.0138690924948047
0.0130672941583641
0.00963534767893213
0.00555850430091643
0.00264373225836004
0.00085212963284122
-0.000261622294116531
-0.000429060791376025
0.000211219753234829
0.00106386740136788
0.00176822155340108
0.00181928069704372
0.00128008292250144
-0.000510060480973133
-0.0045703069760665
-0.0129124921032687
-0.0262339978298385
-0.0418297456934433
-0.0492135206852856
-0.0347531304725203
-0.00273350823780733
0.0207371659920614
0.0183894533424598
0.0016740572900004
-0.00933731337297599
-0.00848737366384147
-0.00125905616576971
0.00561530094763997
0.0106784223823878
0.0150948937907564
0.0179735746922875
0.0183025529985779
0.0159548219552821
0.0122099486223194
0.00847965190371343
0.00565094876524975
0.00403576217837277
0.00290490586207297
0.00162129288262307
0.000192480193284468
-0.000733676571222915
-0.000859429008730986
-0.000203093073530581
0.000186097750093014
-0.000134578685817502
-0.000865883707393807
-0.00167657415520146
-0.00233183440220948
-0.00206364994654004
-7.2043997898231e-05
0.00259336236486442
0.00509862835646835
0.00549925281865339
0.00362544009939745
0.00144344847372322
0.000494791523666456
0.00178679939017018
0.00463951264891516
0.00727063453366518
0.00720524572390134
0.00458273100213922
0.00137020204681021
-0.000685783239097177
-0.00166003697560588
-0.00272708814059002
-0.0050601354539752
-0.0101950627567017
-0.0176668634075823
-0.0258802331663994
-0.0325449154328586
-0.033519993057201
-0.0256420966965597
-0.0108985133211346
0.00388407873772386
0.0142625215514939
0.0208879888791152
0.0248455811467877
0.0252320857299089
0.0209020275533674
0.0140721682006787
0.00678769992139222
0.000359709445955502
-0.00462268876968868
-0.00765926230362651
-0.00835221268540966
-0.00707530051108329
-0.00573143157842674
-0.00613138956761578
-0.00809003982672511
-0.00857828340674621
-0.00355142334138516
0.00584084148887552
0.0138483877923967
0.0153335000188778
0.0102789650376086
0.00337848206458364
-0.00241748838119307
-0.0057919268678948
-0.00579427369558748
-0.00317047725610845
0.000711445933859071
0.00384141099700882
0.00495096275148019
0.00432796325902164
0.00269649484720963
0.000927133832100108
-0.000610993780788587
-0.00195888670108087
-0.00273730185241007
-0.00249058288927237
-0.00134356696759159
-0.000886706261126365
-0.00540749295146016
-0.0162975284265647
-0.0259550724370618
-0.0187837032432416
0.00696998122575615
0.0310262413364012
0.0350903528089884
0.0236376813361396
0.00925854399882255
-0.00155887467894607
-0.00687996261471341
-0.00692491254142734
-0.00311676322119839
0.00135987780954813
0.0036262517345575
0.00266366374522459
-0.000781685105662231
-0.00482958983900659
-0.00732280850715925
-0.00693473195070594
-0.00385149428919551
-0.000363338419941584
0.00178514553961073
0.00234657064782344
0.0017373158844478
8.72316376955349e-05
-0.00252145041720374
-0.00714975914291631
-0.0118977827899429
-0.0135460318654156
-0.00945813836798656
-0.00108312141955573
0.00673583613039799
0.00958192310950129
0.00727473519375911
0.00287425883340116
-0.00113430661388495
-0.00363423175377092
-0.00429622917230775
-0.00295943465649132
-0.000445445658900246
0.00161541671204839
0.00158873034976
-0.00116154177495259
-0.00778089527535285
-0.0177358607789498
-0.0284317890226878
-0.0339760124123936
-0.026559876499992
-0.00468047221826848
0.0209612062163066
0.0365103055250438
0.0376063944376712
0.029644818466979
0.0201344914899722
0.0125672899521996
0.00718342132163694
0.00381645118404813
0.00141482702822156
-0.000740089252387686
-0.00230012926059418
-0.00334771071443779
-0.00330885731494969
-0.00274537604252995
-0.00167992980402405
-0.000627856220140703
-0.000265044797155277
2.86512985408082e-05
0.000433453101042854
0.00176424048094974
0.00438321834686444
0.00643191981403529
0.00737870898924221
0.00769115276515971
0.00732139107441982
0.00512208417974381
0.00181148051001794
-0.00285196246470192
-0.00761458602923487
-0.0104586771124687
-0.00965850693540692
-0.00509574997248266
0.00117778372127846
0.00516670124070946
0.00422062998822244
-0.00284657192585799
-0.0164833780425105
-0.0359545684831177
-0.0570904212682834
-0.067721515595274
-0.0511934094874413
-0.00971508129843096
0.0285142924228899
0.0414574524881854
0.0344470028288059
0.0240464237878869
0.0164847880658533
0.0108538563349628
0.00609917316379263
0.00169639327323002
-0.00121055931751299
-0.00186722518631704
2.95869360692632e-05
0.00347289560600299
0.00661402783207729
0.00790588590759023
0.00685202548280731
0.00383917701266968
-0.000407147549153925
-0.00529798527599842
-0.0108346746905341
-0.0160495471740256
-0.0175915052066711
-0.0115980908810084
0.000718241701217291
0.0129923204017206
0.019276069039985
0.0196806036312185
0.0171438427488969
0.01339512560034
0.0101178568703286
0.00759666427007525
0.00611357258509272
0.00527109154139832
0.00441283657371645
0.00329899887581777
0.00243777841905024
0.00184720732533556
0.00136707254147819
0.000835833108650241
0.00091235700179339
0.00127564928380343
0.000939827670011443
4.29410942220944e-05
-0.00103463780707591
-0.00204688569723848
-0.00435186217812874
-0.00917074735944562
-0.0161669789256537
-0.0233401817165959
-0.0253560251435693
-0.0168048387896927
0.000190347653882899
0.0152013260994433
0.0198706918235276
0.0154455567580448
0.00698618657977538
-0.00176306422741638
-0.00903541793143939
-0.0136607473666397
-0.0140774712105105
-0.0109334176737842
-0.00528614444644804
0.000515513787998625
0.00536450015302439
0.00926237518030492
0.0128553995943441
0.0150051481240924
0.0138123743192899
0.0090123419215556
0.00201252873455963
-0.00652102797256719
-0.0176041082159865
-0.0319825547479666
-0.0427808595965649
-0.035292354931454
-0.0081297189076827
0.0178478585244936
0.0245963352411049
0.0173148877248362
0.00869977640148969
0.00378340061499094
0.00228640157825921
0.0033892039718447
0.00636526742636977
0.0096571858502741
0.0111146136918049
0.00898230562733671
0.00327425034763519
-0.00446008246062111
-0.0125162918826682
-0.0168727926765415
-0.0134606427082501
-0.0036042058306981
0.0074258138534546
0.014037128895151
0.0147823357169156
0.0113796737378894
0.00635287904404884
-0.000138722234031191
-0.00843778872767176
-0.0175224441657942
-0.0222823738846752
-0.0167397514632543
-0.00138212165866868
0.0136959721469088
0.0186051541238856
0.0145449677362916
0.00692309272666614
-0.00185612840715362
-0.0100957945121607
-0.0145050237730016
-0.0111046933732504
-0.00111406990141158
0.00918607051576432
0.0140905988347944
0.0131167324182745
0.00979328561498657
0.00703548091197513
0.00590129428637784
0.00591222463855785
0.00537090022021951
0.00360391181639301
0.000258369181606755
-0.00384895241882823
-0.00770308995544853
-0.0101152710691858
-0.00915602786643197
-0.00483993087322002
0.000720207276669911
0.00549846823650436
0.00821914717489232
0.00893460086209208
0.00802763438568897
0.00591988843156093
0.00346284453749415
0.000541603180920328
-0.00272632923380738
-0.00561964109286134
-0.00644989259384172
-0.00406475460706131
0.00113810433626495
0.00569169796786353
0.00719774745425345
0.00585424504528448
0.00251439892515931
-0.00207698370084609
-0.00739651047454928
-0.0119428118650653
-0.0156505598122346
-0.0168368291623276
-0.0155934473432408
-0.0135214889841619
-0.0111505879287871
-0.00780376630457411
-0.00200767637247798
0.00451830570601243
0.00991314309595877
0.0123715645136544
0.0119704595248738
0.010054196112408
0.0076917894046942
0.00541502065203769
0.00267798772675511
-0.00146988283438925
-0.00753395571266665
-0.0135030724605611
-0.0156056851725442
-0.0113177914069914
-0.00135601940537793
0.0084098788211866
0.0125681907522109
0.0113129296139758
0.00752893603379761
0.00387976496014884
0.00168166820564688
0.00160222161157827
0.00273568976387507
0.00490712673861925
0.0071453758264732
0.00849798973856829
0.00858980051792126
0.00712238428006322
0.00518439666123381
0.0022079896802027
-0.00204391241084892
-0.00929308535760023
-0.0207589115148158
-0.0345429545093243
-0.0418121212860071
-0.0293555110445289
0.00177368392856602
0.0285725427091418
0.0322789860063886
0.0184694621357619
0.00418824939943029
-0.00120792290554727
0.00133902141589624
0.00324063661089502
-0.00202078488923415
-0.0104907967797994
-0.0135170675325042
-0.00850058343886959
-0.00215318119992556
-0.000316792533863553
-5.20306124842953e-05
0.00410947278642744
0.0114997558389718
0.0175001117826953
0.0186896157849755
0.0154243572808748
0.00963230955196542
0.00254131975149897
-0.0050662556498879
-0.0121451054678365
-0.0175451628032353
-0.0191759604121011
-0.0156974774079745
-0.00799084688525026
0.000961123917681818
0.00821618115331645
0.0121757224604018
0.0122870103004693
0.0101145021390405
0.00701750598106196
0.00393105858415767
0.000760411738105053
-0.00287524588801676
-0.00641436706791812
-0.00908668965107098
-0.010098996144998
-0.00854828181103798
-0.0042180073283037
0.000334423971736852
0.00306574415820473
0.00322557894733466
0.00216228410508196
0.00121623737182651
0.000816362576861341
0.000421553182504635
-2.43451847223753e-05
-0.000343640635283421
-0.00053248930566433
-0.000839083135341874
-0.000975061144665034
-0.000113258246839481
0.000990100755128734
0.0012791391086525
-0.000555511847723452
-0.00434143817369138
-0.00830300000318973
-0.00988240732121977
-0.00649040011252008
0.00159189586073974
0.00969447089223647
0.0135407457382126
0.0129448666892404
0.0102710756543292
0.00787122545566864
0.00706369185305577
0.00779524992063808
0.00787477825040244
0.00723804079943191
0.00638395298042213
0.0050575792562529
0.00284459256489045
8.7472970448043e-05
-0.00221816551416325
-0.00400684379911891
-0.00447146279409241
-0.00335165247576106
-0.00127823079552497
0.000883653541126804
0.00306498630710743
0.00370496594634733
0.00243418472382141
-0.00114596232041927
-0.00639920272066694
-0.0122123074667364
-0.0175599767948694
-0.0223913803877379
-0.0279538350785263
-0.0359808587218998
-0.0413907886563767
-0.0307030191770238
-0.00249836902323971
0.0245682575950499
0.0351458733145075
0.0331858863130165
0.026698316808989
0.0169334115614334
0.00573832606402135
-0.00299268434293806
-0.00675111548799499
-0.00708353783057569
-0.00897402856307375
-0.0152574092385594
-0.0217342994338446
-0.0192882858331769
-0.00511561963966823
0.0113077405936291
0.0200436685310009
0.0196057942900272
0.0146641271413259
0.00969710091130555
0.00653553708530166
0.00471691471068403
0.00387166299734219
0.00371782882748069
0.00300000196872056
0.00250754441506682
0.00295614380431797
0.00302130829531865
0.00285169758147101
0.0022856025896952
0.00167867476690627
0.00100487794914667
0.000201625894654329
-0.000890454508929607
-0.00229710423530881
-0.00357801763846474
-0.00538628158333218
-0.00824594966694936
-0.0114957713594724
-0.0126683838824179
-0.00875859898592288
-0.000369084145230392
0.00790748600878516
0.0109133147091588
0.00888991042393739
0.00499795049817164
0.00159196183884734
0.00029791821079143
0.00137782758320988
0.00411540225047671
0.00668861233332923
0.00772899739658459
0.00708664582426694
0.00507695366381008
0.00228073550212245
-0.00076004029370452
-0.00396331510855597
-0.00715908524037762
-0.0101573174345858
-0.0131849256300982
-0.0160555003790029
-0.0180165635196029
-0.0181634259052464
-0.0155030097597492
-0.00966933346840256
-0.00199478220019935
0.00583200525738244
0.0125092406127183
0.0164913166208544
0.017259873892331
0.0152758711155688
0.0112696105944282
0.00610738051452394
0.000327351165037737
-0.00589515360739278
-0.0121148672952877
-0.01629865625196
-0.016005761213121
-0.01046147779342
-0.00144008809342449
0.00633161068663025
0.00985732811208057
0.009551599583212
0.00822424941594172
0.00905405276737217
0.0116033980120807
0.0138317812634308
0.0133519318635584
0.00921295822252651
0.000827508773448551
-0.0116371634805541
-0.026095951964377
-0.0361820920587732
-0.0328585041830008
-0.0147670500102228
0.00742194058160402
0.019548249419797
0.0186214136144895
0.0118422759619232
0.00851556262274269
0.0111718089355506
0.0155378333682094
0.0161939592050016
0.0108856380398464
0.000557144091682736
-0.0147506192295335
-0.0330313062475195
-0.0457935150138623
-0.0371076069739488
-0.0056763696980418
0.0258963008314674
0.0372641396470244
0.0305626200385983
0.0180034394584457
0.00645566978808567
-0.00156391000544203
-0.0060731585911315
-0.00731285320678445
-0.00612524804756104
-0.00461447864351975
-0.00365462547030068
-0.00293020558105583
-0.00255659829086857
-0.00279361685814135
-0.00336768801866353
-0.00385140037726864
-0.00351610676646734
-0.00250813750977732
-0.00170035201895778
-0.00136713257680301
-0.00137052229126659
-0.00175585321972596
-0.00260800373081031
-0.00399405280720389
-0.00461578127867346
-0.00378290108479924
-0.00118668532572307
0.00304809016748889
0.00785596933619684
0.0121314406560095
0.0150496032263871
0.0162293211140972
0.0147797107179108
0.0114798971022785
0.00753344120113663
0.00397230968445022
0.00107475811569452
-0.001566330071595
-0.0045402019916071
-0.00819668796833638
-0.0118861977967384
-0.0142866198667136
-0.01508955179273
-0.0127700072122042
-0.00675312198463062
0.00094983747313712
0.00661182765215533
0.00766019012100665
0.00402889417248182
-0.00242862106384705
-0.00683946302846097
-0.00443600157546644
0.0044543958574524
0.0134112526299613
0.0165177139903945
0.0136162132289248
0.0070102460156692
-0.000438465629062126
-0.00699412897247458
-0.0117397074203935
-0.0126469194025909
-0.00925032980896934
-0.00282441232324191
0.00369088335471447
0.00731690127267911
0.00755234690791374
0.00580247481259206
0.00387672662325312
0.00311148953167687
0.00285336465459334
0.001693638126743
-0.00222264232558598
-0.0095960626133236
-0.0188821875150826
-0.0246479532754896
-0.0209602534551102
-0.00848057773260051
0.00259720783329602
0.00485661132745636
0.00131569414316906
0.000774045631611432
0.00538638263349674
0.0121064665868045
0.016154216996484
0.0160860630844975
0.0136654468855725
0.0105314573320179
0.00825811435788868
0.00728850579603308
0.00685643679412618
0.00625558661825837
0.00405352390975272
-0.000256628661850183
-0.00591545090581079
-0.0120770071103309
-0.0177068714074481
-0.0216882483059423
-0.0251397202953439
-0.0306574510947444
-0.033473738051984
-0.0208098171575325
0.00788851921338221
0.0328814181735444
0.0372506352500682
0.0259054672187415
0.0114238725696468
-6.22429494779833e-05
-0.00623284384798939
-0.00816291138766134
-0.00711861924603872
-0.00553375244666515
-0.00510796342190349
-0.0047162250453334
-0.00264783512895476
0.00105976676991015
0.00422092462146075
0.00437505759676129
0.000561511316331115
-0.00489609700889895
-0.00866367597450078
-0.00608339821210438
0.00245689528109036
0.0108419914117033
0.0132091771696826
0.0101047639620689
0.00541441714607339
0.00182531178122442
0.00130568241804938
0.00220230777341452
0.00386222514627958
0.00534577680846117
0.00611974322176474
0.00528020782472313
0.00315167791070323
-4.84823889194039e-05
-0.00324171109166552
-0.00508909762794641
-0.00489965554659582
-0.00213790109868037
0.00199941164618086
0.00588842012987169
0.00798506717826516
0.00646454209075921
0.00132606781470747
-0.00636013513919901
-0.0150014634055977
-0.0209553835005138
-0.02047815050591
-0.013708255290066
-0.00425136725770855
0.00294508542711201
0.00727006397927794
0.00991810520360916
0.0109558216841657
0.0107833641003776
0.00961243704082848
0.00704300545221639
0.00239170090570264
-0.0041108298492327
-0.0109921261701424
-0.0146449328094912
-0.00942476429631882
0.0037741671381269
0.0151767137121795
0.0168130614342985
0.0102140583210789
0.00114972495304732
-0.00616230639214758
-0.00998908610706006
-0.0100294716882355
-0.00659572600671497
-0.00214874533428553
0.000741815564857981
0.00161790211394772
0.00151814622789499
0.00139383286756229
0.00199261444939859
0.00272268296027424
0.00378797617421076
0.00525192254190561
0.00608833874130341
0.00626844994659097
0.00539911623122852
0.00357143752535075
0.00083706320129775
-0.00176205458255209
-0.00440747635453503
-0.00548902541090778
-0.00295556485210528
0.00149319811391692
0.00583818952773192
0.0073759217492043
0.00582181592485367
0.00281287750685684
0.000178021211555829
-0.001461796565439
-0.00115497896622458
0.00104825610140499
0.00351460215914913
0.00459697255093156
0.00212020404817378
-0.0040574115496955
-0.0126686213706492
-0.0218479926728391
-0.028224724573542
-0.0282178574220753
-0.022234543319705
-0.0129657940080266
-0.00211349670847
0.00891740788764913
0.0158174880863672
0.0129672641163796
-0.000821323090650248
-0.0158079908593265
-0.0141944438913007
0.00714034764370292
0.0282373953457273
0.0311961478604865
0.020763151172229
0.00946915588135414
0.0028192183608797
-0.000379468699651876
-0.00188633482261216
-0.00230016686697062
-0.00246709333926791
-0.00210359975662998
-0.000819541225883433
0.000539001229953376
0.00120550530577805
0.00129280906059251
0.00042041034985138
-0.00133506063191833
-0.00257271605473595
-0.00365584488576262
-0.00484865530529224
-0.00490508986344943
-0.00392289832903462
-0.00244520245700287
-0.000171977857341232
0.0017079323260696
0.00257077983355769
0.00357561309732146
0.00380469191090856
0.00372331951761957
0.00365341013919481
0.00370773432397895
0.00438652830908325
0.00519879984390014
0.0053801704950803
0.00418239382356158
0.00111475300421377
-0.00407246040792945
-0.0105722154506246
-0.0177113943133859
-0.0240162428797228
-0.0266139901511326
-0.0240902828574992
-0.0183308701093443
-0.0144665653535876
-0.0148721777427332
-0.0143070072583346
-0.00472477292895121
0.0138902999866378
0.0305062362828348
0.0356819386248954
0.0304458148214485
0.0214028139562063
0.0136316869879583
0.00818395765673269
0.00413821690258525
0.000501789504795267
-0.00393946603239836
-0.00914782848911044
-0.0138029932823838
-0.0151278909463328
-0.00958460430834854
0.00187965334514801
0.0134166055302847
0.0189851979343055
0.0180963792743555
0.0141152858475266
0.00984022552257174
0.00625593498737466
0.00390189100073154
0.00224503503694087
0.000918266557149913
1.21671404594674e-05
-0.00080545584434337
-0.00234679196515424
-0.00436061110541008
-0.0065362282770772
-0.00968747577701156
-0.0117467954872087
-0.011628482742084
-0.0090195051571842
-0.00519380712248541
-0.00257187073545923
-0.00113871540817767
0.000881849445309769
0.00349553356059868
0.00555171742576629
0.00651306304571319
0.00685933144611959
0.00626842126912754
0.00458544922736516
0.00184920540252697
-0.00175947100003711
-0.00695576177362914
-0.0141575312396754
-0.0232754910592486
-0.0341193305769931
-0.0392002603310397
-0.0255567591288144
0.00499592277401039
0.0303196567601287
0.0330842555477068
0.0196482802830429
0.00532243852864981
-0.00291546207155879
-0.00495018775126144
-0.00323851210064715
-0.000588221186816828
0.00190358758109209
0.00394239109823934
0.00492600341806931
0.0045272015359208
0.00279014129293295
-0.000561161426686434
-0.00528178888787388
-0.0101918983586716
-0.0137522728601888
-0.0132738856471111
-0.00724172764229834
0.00250617632696312
0.0108749015329849
0.0135090375048688
0.0104084155563832
0.00433583264693491
-0.00138304356031288
-0.003255855935399
-0.00133844449390565
0.00381116339182104
0.00936308381115891
0.0128756641266982
0.0136277805690323
0.0123611759179639
0.0110517427869735
0.00977607674374589
0.00837605920164278
0.00711643454062513
0.00596848657164433
0.00412322150308827
0.00138590420202501
-0.00246913201363694
-0.00777580953556317
-0.013475492116859
-0.0183054319298529
-0.0221106887565686
-0.0244822835090465
-0.0236840744130935
-0.0162782440441034
-0.0011472967185958
0.016812147257386
0.027751762642676
0.0275641781340342
0.0195747667610674
0.0104980176267462
0.00350110437769549
-0.00156058646926747
-0.00536037188000343
-0.00802988938818373
-0.00971891501871225
-0.00957582838765678
-0.00774507724222966
-0.00453959801867794
-0.00146593629124266
6.61596237115855e-05
-0.000406146306129825
-0.00250224170443655
-0.00512077343432255
-0.00773352445602839
-0.00908455645525986
-0.00820595722935773
-0.00525152519772144
-0.00149981673868456
0.00122555927414895
0.00197334465576654
0.00026863359945079
-0.00264698486874811
-0.00488164871571239
-0.00456044082466322
-0.00102289744213893
0.00539526708843717
0.0118338533193525
0.0151866319187136
0.0133342103975933
0.00670579903024834
-0.00185538584637938
-0.00710957331635294
-0.00630188562267258
0.000274656703335218
0.00749630490211231
0.0103653311320481
0.00850330517738343
0.00495091142494066
0.00174212529298588
0.000173490237556759
-0.000354954673125525
-0.00052775940259061
-0.00040716510959533
-8.42812954848678e-05
-0.000121554668075055
-0.000803520427502598
-0.00218373148957996
-0.00432026481726563
-0.00669424093940338
-0.00783715094739064
-0.006833101387503
-0.00296683831593122
0.00132993408793216
0.00268588818635607
-0.00310838078747985
-0.0158911544200562
-0.0270325643274966
-0.0202822973343964
0.00641697216418779
0.0322853511436261
0.0386041043674417
0.0295608663828404
0.0178554472920124
0.00880708774048902
0.00222689605982031
-0.00287936009660002
-0.0076061565112348
-0.0114259479202215
-0.0137171919643443
-0.0135958103214918
-0.0102527988556633
-0.00539601136674629
-0.00243620837152519
-0.00320690580749763
-0.00453559830920588
-0.00193897640027297
0.00478356880659998
0.0115834549758132
0.0143086822445956
0.0129829339630807
0.00966171110876376
0.0048984992403888
-0.00148953192719444
-0.00837137718038262
-0.0126226058133976
-0.0115424763018378
-0.00705979656488528
-0.00409234499558333
-0.00645411798833928
-0.0129108066448276
-0.0188761799975963
-0.0199179137450338
-0.015872626669592
-0.00892347738016331
-0.00225621791408072
0.00277384469628134
0.00655442805781319
0.0093527747736424
0.0112232395168812
0.0116382167121396
0.0100628966508753
0.00604916988597612
-0.000921324997412535
-0.00948444453744251
-0.0149046385580291
-0.0114472979595837
0.00115640556424728
0.0137866993108214
0.0182958468985608
0.0153960543065148
0.0104466502839863
0.00687557923581631
0.00614522891582055
0.00674703440210565
0.00732058102213653
0.00630608019741404
0.00312920134703497
-0.00118259733396105
-0.00722049718416489
-0.0127783898443461
-0.0144925649176394
-0.00947938304578956
0.00218453358673726
0.0137358019667912
0.0192533887879895
0.0182888440560498
0.0143973704439264
0.0105300802534294
0.00804553336059891
0.00494182755029576
0.00103716002285282
-0.00383698213767541
-0.00940873870073677
-0.0152980145284879
-0.0225204753375256
-0.0313209369374939
-0.0363809774438531
-0.0255467607911801
0.00202299926135086
0.0262232234817475
0.0294742375003177
0.0173778419336747
0.00348036057496304
-0.00676098341910695
-0.0136992968031934
-0.0186348326513296
-0.0213370077295218
-0.0209709371776184
-0.0172894518390169
-0.0124709376656521
-0.00905832499273244
-0.00800114160698548
-0.00636568464657129
-0.000280583588965881
0.0100189395406692
0.0197137844152373
0.024178079026416
0.0225993686638495
0.0182765374350756
0.0135623872900899
0.00969157735804254
0.00706161988132421
0.00505415149740652
0.00342082072219561
0.00271157463758663
0.00264164683220533
0.00233922127250224
0.00170052231316575
0.000893054100682218
0.000533505598362755
-8.36947926412018e-05
-0.0015224242862147
-0.00419865742922424
-0.00855420445972169
-0.0137153836815419
-0.0189926667813968
-0.0219532602270459
-0.0198240706649983
-0.00949815441548259
0.00646967338393758
0.0189843148707829
0.0204400994019971
0.0130119199338612
0.00420216790692636
-0.00158551259773989
-0.0032019727855553
-0.00158621207249922
0.0016220632805878
0.00460116058500608
0.00606362259712711
0.00616063661446449
0.00564815156173141
0.00594222871609919
0.0053433538628409
0.00478681564605554
0.00473807383533917
0.00458296176811059
0.00406532485167665
0.00403764537107561
0.00476812960676383
0.00654768411083842
0.00898643040474684
0.0116656235764371
0.0133738477152005
0.0129420720410733
0.0104457804463104
0.00565873849528455
-0.0020490724917085
-0.0131555523640179
-0.0269190981706894
-0.0417853153617239
-0.0532074196026721
-0.0573531102241403
-0.0554481172140229
-0.0511846869170131
-0.0410955796807623
-0.0140149713038757
0.026715476412362
0.0555046017564685
0.0558066106071809
0.0377681458333661
0.0197732342835825
0.0099567460518922
0.00755815187980415
0.00811196717222953
0.00786773462711053
0.00519734765226181
0.00142206824952876
-0.000652851495043861
0.00044766307358512
0.00403493793721179
0.00811056254758449
0.00981943040373248
0.00868231636703024
0.00591163364353758
0.00259703758220252
-0.000584414356724538
-0.003483742067097
-0.0059048972142152
-0.00754361014856095
-0.0084346194788787
-0.00920255576818299
-0.00877446534685354
-0.00708247234992448
-0.005719890427431
-0.00489318241149932
-0.00462004238740734
-0.00488574074348539
-0.00527035286648324
-0.00499059438818962
-0.00318709395102173
-0.000106736935241241
0.00406152121356327
0.00766800413852167
0.0100196526615372
0.0104835814200058
0.00938188438994958
0.00751482250270553
0.00574312761149988
0.00400949779144445
0.00267032084322969
0.00211252872751603
0.00238959692364604
0.00363564950669894
0.00514784529064148
0.00645213245835595
0.00605197979854755
0.00329405533151613
-0.00250211505728783
-0.0111808496844109
-0.0215082413185103
-0.0280253969031174
-0.0242951867429675
-0.00987100464297169
0.00615853788252871
0.0151724512722739
0.0160336778421777
0.0128191377797012
0.00977165659117466
0.00734514681394496
0.00482975107960179
0.0011994165085731
-0.00314184618834681
-0.00642704551775496
-0.00696393945840967
-0.00410323662588973
0.000194668800113463
0.0035089875232163
0.00428330790162629
0.00156416061387868
-0.00327804266356936
-0.00777360455289657
-0.00997315943554578
-0.00850036164313445
-0.00376068707107213
0.00204351327736081
0.00656020076501604
0.00878082033587489
0.00898430563108097
0.00855918433361089
0.00819639664765037
0.00672990228405041
0.00376554393848503
-0.0014100274945698
-0.00884180306679815
-0.0169895775734704
-0.0238478599305009
-0.025148026212967
-0.0170349214209474
-0.0010632226134596
0.0148418856406708
0.0240297033050219
0.0253509878558765
0.0214542561018571
0.0151292043956702
0.00729891149003748
-0.00272195332449844
-0.0160317234881108
-0.032178690024593
-0.0432572406483732
-0.0355818640173699
-0.00896400804177852
0.0145017372327035
0.0168712050315812
0.00625997273420821
6.30179196384997e-05
0.0033838013822803
0.0101188971122994
0.0136556812372934
0.0122147269644221
0.00858423898636867
0.0055313662989498
0.00368979518260154
0.00238084726410846
0.00208000646013957
0.00258881120655563
0.00408455350591873
0.00595656286851294
0.00733111784774554
0.00842798411470162
0.00888139877139617
0.00880025021545284
0.00842616762178407
0.0066971964727117
0.003437909250871
-0.000894006197210274
-0.00594561214556622
-0.0105796581858044
-0.0149823944658281
-0.0185168168966842
-0.0201526463866105
-0.0190311156527492
-0.014002123893242
-0.00593980450869226
0.00279029448722793
0.00923355417083512
0.0116929345915067
0.0100403520778001
0.00431906038619026
-0.0045360943000486
-0.0140989893650167
-0.0206007175562305
-0.0179990947857666
-0.00749199513864504
0.00213222341843083
0.00454618488926645
0.0030308995477012
0.0051457321959329
0.0125949280914499
0.0207084664672596
0.0244774775224664
0.0227555497827042
0.0177725298717478
0.0117570411436261
0.00584849295809789
0.00103542690606173
-0.00338233084254994
-0.00703289758407368
-0.0101647238771968
-0.0117264792956665
-0.0112412711256953
-0.00909163952673887
-0.00509306459062064
-0.000595619453437206
0.00370290142845929
0.0069092997509711
0.00900349550788715
0.00981895571306552
0.0091139457326789
0.00727349423126211
0.00469173209638765
0.000987165738562734
-0.00403821483086875
-0.00980888413341283
-0.0145324366009479
-0.018311959508407
-0.0234100413670366
-0.0315218206634926
-0.0371538274275851
-0.0263995842188394
0.00202549129145856
0.027095383917422
0.0325582785249191
0.023453864103575
0.0137809469441314
0.00926134283377739
0.00834110654368319
0.00854058173871452
0.00875925056499852
0.0084265690961541
0.00745769469826147
0.00633360564538789
0.00494647889966201
0.00346996134178821
0.00114333266703327
-0.00278850909188428
-0.00893792171998315
-0.0170207122822399
-0.0267610133139404
-0.0332952485986495
-0.031733476821172
-0.020679335622592
-0.00370406828639463
0.0123782930523759
0.0228790644422055
0.0262072933408838
0.0243405567875704
0.0198675804810477
0.0150625729690839
0.010908634293823
0.00713589484965883
0.00339815955138948
-0.00133349916049921
-0.00723370677533769
-0.0142211541007374
-0.021749477469011
-0.028555785568806
-0.0320306999191222
-0.0291342010248372
-0.0187180956665528
-0.00315353112585955
0.0116359782178483
0.0210609601124042
0.0244146654760287
0.0232134695329202
0.0197089688126488
0.0149844224878007
0.00882393255389508
0.00111651919797248
-0.00754594451657276
-0.0160268335355803
-0.0221316803525796
-0.0219773047793253
-0.0116894451640367
0.00532356182819603
0.0195877011176797
0.0239191334016833
0.0196153855543661
0.0124599198660436
0.00657358542533053
0.00248206742577106
0.000222862084067673
-0.000325753114099465
0.00066203842877494
0.00299814810456133
0.00553817209089385
0.00729936310367261
0.00763949435902364
0.00656349540419787
0.00351747413821436
-0.00127623300249811
-0.00710316700648852
-0.0135755823670894
-0.0191053462934069
-0.0215204606585426
-0.0198199243259215
-0.0171436104109177
-0.0206768768912306
-0.0266183291317337
-0.0187135631521268
0.00738524071968833
0.0333140286149533
0.0410328129381804
0.0339755041110403
0.0241528562864695
0.0166346272074045
0.0113350181772926
0.00731390991161836
0.00425008865373412
0.000827149664852984
-0.00269258065432693
-0.00693238420095769
-0.0117708858193999
-0.0166859762579671
-0.0205382671940489
-0.0216247377928879
-0.0182547771906905
-0.0118791818409226
-0.00516905521542756
-0.000443099554640545
0.00186320384121282
0.00249980129632647
0.00227154101202688
0.000812472918127135
-0.00252773105041033
-0.0076087961527643
-0.0126135334640058
-0.0147800761949432
-0.0119684295677898
-0.00444409785330357
0.00459794708911823
0.0112205066641467
0.0132877235858169
0.0105640897021935
0.00497130764664616
0.000866526296493471
0.00223426895931465
0.0088767912878036
0.0160647736564382
0.0188961594013306
0.0166442834744039
0.0115801860517135
0.00591857441205482
0.00105810850223127
-0.00235258322881839
-0.00495158624904256
-0.00764299147276352
-0.0103534854478945
-0.0128571407317854
-0.0153535272915436
-0.0166024634254748
-0.0157307449536402
-0.0116700834453783
-0.00368383129240414
0.0056177427581201
0.0126200359805783
0.0147701169973279
0.0115342030604596
0.00318488479479065
-0.00796517358925983
-0.0154228631033445
-0.0120221443755682
0.00105550757487556
0.014402957484654
0.0180253771202986
0.0111994182659011
0.000224040043702493
-0.00778088241296408
-0.00757292104503101
0.000147650076296152
0.00895458855695646
0.0122160248786555
0.00848771558255734
-0.000462470214854739
-0.0141995480791154
-0.0325921625665014
-0.048098600053128
-0.0458095213818819
-0.0231462342532555
0.00100405614595317
0.0116103949841051
0.0150476004567709
0.0199387568593698
0.0254623941616549
0.027291062170544
0.0251200420267135
0.0198916974168701
0.0138696042618822
0.00858672805220342
0.00497628735092345
0.00287668030040082
0.0014827025145993
0.000627095069239656
0.000252414429988446
8.00493689188369e-05
0.000274767189383467
0.000531451834871543
0.000694745783706084
0.000718832201378668
-0.000240584807349544
-0.00263541506961417
-0.00642488919974296
-0.0120443606341196
-0.0177712295564185
-0.0196590676442758
-0.0149956772344072
-0.00495016063390337
0.00484292448224085
0.0106994905164925
0.0123813843716964
0.010314868093785
0.00710869564228354
0.00419969597081654
0.00173120474435195
-0.000541920764327264
-0.00275844140982347
-0.00476411564657554
-0.00587319798992807
-0.00563613880298146
-0.00406965420473424
-0.00192519531674269
-0.000420899102315265
-9.09318444929533e-05
-0.00106022380766863
-0.00529336408758151
-0.0114937810417228
-0.0169233636432601
-0.0188542953358877
-0.0148604720443307
-0.00592846811638508
0.00483061193311268
0.0132805300661665
0.0182827654204322
0.0198436200758679
0.018692142715977
0.0156047258751587
0.0113596815588442
0.00688014435520419
0.00176635599440048
-0.00373851399145396
-0.00935011843609357
-0.0136669484404392
-0.014431004704076
-0.0107568054192697
-0.00465437525968048
-0.000298469304431017
-0.000582700025154347
-0.00351510949635964
-0.00463168084533811
-0.00284718158820631
-0.00159142686965693
-0.00250191140718969
0.000505114405668738
0.00961896349690957
0.0181548691143146
0.0192671478731686
0.0135908550023476
0.00659131401672396
0.0007150409296722
-0.00418425741169015
-0.00808550970362866
-0.0100726809852581
-0.00917901215441774
-0.00460188511610247
0.00273078459003548
0.0103139025309713
0.0145256680701691
0.0134224322117664
0.00606710216583085
-0.0081604025968126
-0.0273542814978683
-0.0423750498253936
-0.038603928932694
-0.0140968736308386
0.0121936041257553
0.0248970811054287
0.0268599095432176
0.0258025669819252
0.022396859990941
0.0161864106866413
0.0085884924003142
0.00137724883821968
-0.00406643852653766
-0.00810999967356325
-0.0103355144486887
-0.0102505493655684
-0.00768550110157538
-0.00292492719771684
0.00192493588774356
0.00498122008003455
0.00581423345604458
0.00551190314345016
0.00503740063897653
0.0043903337592256
0.00322229194795503
0.00144776609646377
-0.000905038434458724
-0.00422598854532333
-0.00834154752082594
-0.0129761439297834
-0.0166105580142391
-0.017513461872525
-0.0127469076650152
-0.00392115660939241
0.00441704550934528
0.00915439487174686
0.0099523433388253
0.00943803322268186
0.00984781565777208
0.0116517404054374
0.0132959513764209
0.0131260198807957
0.0105475308553565
0.00581387283944967
-0.000798739511415841
-0.00878980379689937
-0.0175923935118899
-0.0252399516382754
-0.029468770888466
-0.0290750878072904
-0.0238468252558244
-0.0141076076880987
0.000285147844341444
0.0164531809823445
0.0281079555011507
0.0310499106398221
0.0267328620919238
0.0198058438420802
0.012951071085998
0.00767161711446742
0.00414712638393959
0.000974826426978148
-0.00164732173553046
-0.00385491631179669
-0.00515552158654436
-0.00534894410349672
-0.00438424707494236
-0.00233321234486729
0.000308357377412176
0.00334263656498935
0.00637020285500423
0.00813949970521407
0.00727467369986298
0.00118047044197681
-0.0120286900543713
-0.0323321932074462
-0.0506285188012404
-0.0519586682981208
-0.0301760282725973
-0.00103846768403537
0.016444680491106
0.0187821939487275
0.0121018185363695
0.00522969766834909
0.00485438901891709
0.0103314796927365
0.0157792970913216
0.0161297154743899
0.0115026743165925
0.00503415257683295
-0.000380549541436235
-0.00408317376137585
-0.00790799975910852
-0.0132138004293466
-0.0191058282704848
-0.0223160832722969
-0.0190883643636855
-0.00943176113954698
0.00353112157745826
0.0151300687944563
0.0221732229551563
0.0232077328056954
0.0194785660521275
0.0133993724001863
0.007632150125722
0.0029664612040677
0.000208516049650251
-0.000769676739633471
-0.00055462115475457
0.000318598334624459
0.00128882770721574
0.00296814378656076
0.00419535890800131
0.00445265315202085
0.00433643983567502
0.0038840407386693
0.00301830558090208
0.00182267157205296
0.000963574998197005
0.000418972649215023
0.000744721400052838
0.000754490495896537
0.000370479786625906
0.000552494296080595
0.000649804518534917
0.000357916866004458
-0.000422274070536469
-0.00199990179792404
-0.00389781125370415
-0.00543167460696135
-0.00507546701432728
-0.00171093338314318
0.00377181995433138
0.00902675499991483
0.0118166242382786
0.0113677159765882
0.00859213813729354
0.0048950555545185
0.00010150888588385
-0.00615330203488652
-0.0141047853171444
-0.0218424420840316
-0.0248536450083231
-0.0199074678521857
-0.00768644079421739
0.00540820021512963
0.012513358950859
0.0121718084340281
0.00824877280363319
0.00263135426944203
-0.00290790159948243
-0.00721590793671096
-0.0103482882006122
-0.0114707020323502
-0.0107615072656139
-0.00734910411832555
-0.00207678398973131
0.00278838626175812
0.00510015360792472
0.00340641004813437
-0.00162822663676743
-0.00676394988717485
-0.00668243627350405
-0.00188871856423807
-0.000688574249077118
-0.0097853104417203
-0.0250778083732007
-0.034135242109171
-0.0241635555987022
0.00222082910517439
0.0241572478026162
0.0269818869624144
0.018235169894057
0.0111611624506206
0.00891096226518409
0.00862485099472069
0.0069201615186599
0.00266826657201655
-0.00209499175436839
-0.00494177360299229
-0.00381304772134262
0.000301779756950055
0.00526877536260294
0.00814165587394155
0.00764426419925568
0.00542354679337935
0.00296654599306095
0.00142886068538895
0.000769233363900623
0.00159608023594152
0.00368789627668652
0.00592377346508797
0.0072188850083679
0.00805261547242852
0.00789608543122888
0.00726154949502075
0.00621761335946637
0.00467638336682113
0.00278635026964876
0.00106743589594024
9.73487763882746e-06
-0.000520156900027343
-0.000408500141471924
0.000349604447664058
0.000985509871166139
0.00155713721529431
0.00190351268635677
0.00142780243655596
-0.000656781216906695
-0.00453240670699209
-0.0103433543029004
-0.0162684954734046
-0.0198665461010479
-0.016849176871931
-0.00852788042469711
-0.000257067125393809
0.00405287689021512
0.00495509747081271
0.00550056837583079
0.00534472270840885
0.00380080357774959
0.00106829276145325
-0.00124021644492962
-0.0016137764627344
-0.000258318083873751
0.00129854549842706
0.00120199856230511
-0.00185391651538096
-0.00734214660311197
-0.0136398823205941
-0.0185546484178807
-0.0195080054426398
-0.0145684268484133
-0.00390952667429958
0.0094143937693189
0.0189253892412687
0.0212780135647713
0.0186819612327378
0.0146834706560189
0.0115344801624142
0.00984709778307191
0.00788154155268956
0.00500274049352887
0.0015549054040725
-0.00127583898086225
-0.00251912673272837
-0.00233050170702253
-0.00161276507792044
-0.00186169071479923
-0.00431464836484827
-0.00933042253030357
-0.0169500981772737
-0.0268998985586523
-0.0329203002565469
-0.0269961931273088
-0.00814824734999259
0.0128263661475397
0.0244315640050765
0.0257630595970766
0.0216914301679943
0.0178505750215517
0.0151288828281303
0.0133400293982264
0.0120656449668368
0.0102607152333808
0.00778635023838752
0.00374933691765588
-0.00297254741579415
-0.0142322457617599
-0.0291878443104419
-0.039222000902998
-0.0298553573567026
-0.000804206168262041
0.0257401823630732
0.0312721861595253
0.0205648435202177
0.00705694725159869
-0.00305440318596278
-0.00843195881719023
-0.00963422730489715
-0.00731660549998844
-0.00269104754645594
0.00190073970536924
0.00483557908799034
0.00511565069339949
0.0035080714636517
0.00127743917296445
6.85312499359414e-05
-0.000707368522244369
-0.00141394224548304
-0.00247094947312374
-0.00404890671454193
-0.00580370453032222
-0.0076495275738138
-0.00884048065406806
-0.00857430964389559
-0.00604314451928488
-0.00234403794744571
-0.000514460966716524
-0.00189254824614837
-0.00375960670971357
-0.0017351178483756
0.00430309979797906
0.00849387687308698
0.00565113408934203
-0.00208792908129231
-0.00758348464074665
-0.00570067303124714
0.0032758271537839
0.0126210962048931
0.0166116406803852
0.0144556287111164
0.00816870206645858
-1.46700730264244e-05
-0.00746741618000134
-0.0118672163024665
-0.0113292464535228
-0.00512938113784659
0.00298243262556596
0.00950158560297779
0.0121415354897343
0.010661002846984
0.00681257501503202
0.0014985845540238
-0.00384309318591653
-0.00868398042768337
-0.0121707388275923
-0.0130714052458415
-0.0103607656253439
-0.00460647493691939
0.00155163628345841
0.00479315596413223
0.00423358089369171
0.0010061070167401
-0.00272808411394784
-0.00533967218143444
-0.00561519723715123
-0.00300268271690773
0.00169332592773535
0.00678114802853986
0.0105850526568173
0.0124367732355181
0.0117529813631131
0.0100964049192283
0.00779464144461679
0.0047241313002114
0.000151198765591715
-0.00640370836222074
-0.0142053758758616
-0.0183981300466153
-0.0126197132150339
0.00232585247556715
0.0167964309723443
0.0223910454916878
0.0194481958778703
0.0129431370843867
0.0055488032775123
-0.00330032299367811
-0.0157611788414493
-0.032237413634884
-0.0439197916522591
-0.0360640388638652
-0.00849522212824431
0.0168528391136624
0.0226218519839241
0.0148531710366344
0.00660506349170622
0.00393474190483915
0.00613905160957821
0.00977314078289136
0.0117071115549463
0.0100312527173129
0.00444458697540995
-0.00399967393522396
-0.0149873636473812
-0.0270473608340374
-0.0347113153532448
-0.0308224341192078
-0.0134312867804272
0.00944905214354948
0.0260240528923361
0.0308363233515927
0.0259219390291743
0.0175589388977437
0.0107470218537568
0.00670936817062242
0.00484657357139724
0.00367908785285594
0.00240599363431485
3.94769579321664e-05
-0.00277080131410196
-0.0055759828389181
-0.00758623907971192
-0.00787787208239489
-0.00666572214257292
-0.00422362691690568
-0.00240116326892911
-0.00249878688354127
-0.00464613198361539
-0.00782043563019844
-0.0102214644215087
-0.00978427894001798
-0.00618421096331083
-0.00149582933802689
0.00315574867696066
0.00682108517843582
0.00847280531399868
0.00716953364426958
0.00394333599905327
0.000804777306546682
-0.000298219250916021
0.000865097984965905
0.00337383122177396
0.0058256591208485
0.00663941168218899
0.00607225770887363
0.00486693225637883
0.00379966889980297
0.00285263934199939
0.00203160465098888
0.00135667443302974
0.000952763875841917
0.000724945896363845
-0.000485351949047805
-0.00246917937404384
-0.00422867816120574
-0.00474603846078391
-0.00501371296332709
-0.00534241990047965
-0.00583733071086758
-0.00865750527391606
-0.0129405102220122
-0.0145507919802426
-0.00753547150529555
0.00782311140486502
0.0217831552608978
0.0260735634768812
0.0224407665183147
0.0158996366504655
0.00923979969130625
0.00368712242456663
-0.00112315882339696
-0.00581302483981469
-0.0100990760533828
-0.0151330044073405
-0.020664554903332
-0.0271807848985782
-0.0345549718770021
-0.0368332188289489
-0.022927867848777
0.0057357685419065
0.0271051634499818
0.0252073924131689
0.00986566081984077
0.000199035687023048
0.0024984566277169
0.010379160046435
0.014142333047644
0.0100920967627551
-0.000597155677240224
-0.0133050587252719
-0.02295712140557
-0.0250370874661032
-0.0163923455032817
0.000263992661805745
0.0166281936585796
0.0254401582757829
0.0257439940219151
0.0211202863051524
0.0148721857264765
0.00860073758576691
0.0024309437873484
-0.00441463858434307
-0.0112849481471807
-0.0161799281517751
-0.0183552216759733
-0.0162901122879082
-0.0103316045040599
-0.00285979415987023
0.00364633869209217
0.00735131027133175
0.00915501642773696
0.00956232091204075
0.00910197290692228
0.00791811682971352
0.00613660235659586
0.00373093283605837
0.000598599234912746
-0.00275104977903082
-0.00535682698993824
-0.00540241516226126
-0.00326490654817189
0.000441213041820684
0.00477909066280256
0.00713275403792387
0.00736799245903703
0.00637708231384515
0.00482707662992841
0.00392053399016873
0.00364723874653589
0.0040835673281104
0.00529419810925265
0.00562169553709037
0.00467875311539602
0.00306262429018407
-0.000323697732518195
-0.00556388534240817
-0.0132002273525992
-0.0228731004021451
-0.0295736210874451
-0.0263071295941952
-0.0128813679050874
0.00209594845547233
0.010185958812742
0.0110858726802682
0.00813813674565913
0.00336197428378668
-0.00188285726327774
-0.00606945716523273
-0.0081559613322932
-0.00903548808306169
-0.00883526683375202
-0.00907884047024137
-0.00916615691622841
-0.00812431940454326
-0.00553377084449027
-0.00141063615591601
0.00500338263453499
0.0128524777631817
0.0193685785216768
0.0214596640639968
0.0195710307111845
0.016945137908398
0.0152119077714129
0.0133448631683339
0.0104882813691327
0.00562832019343183
-0.00216833754928823
-0.0149418267165014
-0.0316348386189043
-0.0430500950570269
-0.0339641602727077
-0.00412120731034824
0.0240001075161348
0.0319316880333479
0.023665144820489
0.0119149241645226
0.00244206912548077
-0.00456208916765908
-0.00948816020960544
-0.0130646567976513
-0.015078876507172
-0.0148011414649924
-0.0117097323988602
-0.00648541568821194
-0.00102220602465182
0.00249408706623195
0.00425806162185919
0.00546796273885493
0.00624185497576272
0.00619080504739054
0.00502784649144141
0.00293654433825226
0.00107369637735787
0.000247608226803159
0.000779767446872373
0.00167811257567716
0.00268265181949666
0.00413390416965926
0.00568937262820932
0.00663544787629255
0.00692195536101416
0.00673012517786231
0.00586851091494324
0.00502286884969127
0.00449931041571651
0.00416992746246931
0.00401607416105476
0.00304116863030775
0.000989082353835834
-0.00110702042030635
-0.00217053645811887
-0.00211776677233077
-0.00243310396187106
-0.0029384311489168
-0.00293205788236484
-0.00317116411040104
-0.00384941397248115
-0.00498667104163303
-0.00583900601589505
-0.00533048110037535
-0.00268120924981774
0.00138446116401773
0.00477122428042329
0.00252382201738131
-0.00746222751858401
-0.0196268023094458
-0.0222360156428329
-0.0114539213118803
0.000863139061307746
0.00113410644058272
-0.00750744440075516
-0.00556966783461547
0.0145122314115634
0.033873424239314
0.0343011569000164
0.0196164710219096
0.00226015899745401
-0.0112599778665374
-0.0185780580430939
-0.0191086026270545
-0.0135761442272414
-0.00561767340329056
-0.00032900038739448
-0.000746775037551454
-0.00499431045869841
-0.00970802795999051
-0.0116462095751328
-0.009537849998066
-0.00382227504415459
0.00313259237323982
0.00866391605148267
0.0115663720603587
0.0114232771138218
0.0095719383555268
0.00746965043849041
0.00499549897517066
0.00248912845320989
0.000419072974398614
-0.000326896548099939
8.42276418155756e-06
0.00131363229481544
0.00260029086874557
0.00351045037321998
0.00430868251516136
0.00493247297690446
0.00495226817799896
0.00426712675317964
0.00304311865438571
0.00184117204862629
5.97551696539834e-05
-0.00197928572615915
-0.00376633700953198
-0.00542546231574954
-0.00626151241504109
-0.00504658358980587
-0.00282379766633394
-0.000712312537705418
0.00119868210416219
0.00244157412967511
0.00356287636585246
0.00483435303038481
0.006220299583079
0.00669654497087681
0.00554662449087036
0.00217486160539984
-0.00363943565328777
-0.0100139589154607
-0.0135827918004004
-0.0120028369884063
-0.00585101754814069
-0.000255704160983492
0.000545107793700261
-0.0025733230212173
-0.00493494165555087
-0.00323153975771936
0.00232608038453784
0.00820608945320613
0.0107813756636915
0.00846034840605345
0.00265691876081385
-0.00477482270822228
-0.0120780295778103
-0.0173184372001178
-0.016764637802874
-0.00908591493112046
0.00394680298019382
0.0161873295639829
0.0221869685626912
0.0219026322594753
0.0180619252458151
0.0134892129498182
0.00934837236806173
0.00580390174246494
0.00244442871807322
-0.000350354260832468
-0.00196087670955097
-0.00277704615065808
-0.00280624224354123
-0.00330642456611191
-0.00796212867419439
-0.0192486708075348
-0.0356129553420393
-0.0472175309728092
-0.0369681359136492
-0.00493087371347039
0.0251792923151649
0.0326382743417863
0.0212853278941871
0.00634824778619294
-0.00370365913564938
-0.00750917494813005
-0.00684584191124855
-0.00596419149879511
-0.00732823081505781
-0.00869437303606739
-0.00369431013738963
0.00825041572342754
0.0193347145048981
0.0212229627581971
0.0152677171502536
0.00739250742367977
0.00117432579753648
-0.00287382390256858
-0.00534696556412786
-0.00600485319911744
-0.00443185564540964
-0.00157612061490141
0.00212232813929155
0.00517286094356535
0.00701194948088549
0.00772366659151179
0.00725767149395189
0.00584958587287925
0.00315045986889261
5.17316810145696e-05
-0.00137024863336371
-0.00125172097686328
0.00061855569823992
0.00381130010200106
0.0073485998262739
0.0102488862585124
0.0110366772101022
0.0102191684461919
0.00879869976797373
0.00748083216854781
0.00561141768419462
0.00301974502654029
-0.000749535853568063
-0.00599780730916628
-0.0128247720706434
-0.0202008335540584
-0.0253764051710794
-0.0259647145998395
-0.0203572758409368
-0.011320117677836
-0.00156251474154008
0.00685188828644344
0.0124228478661075
0.0140010292595278
0.0121425276833225
0.00850712349493125
0.00515242436747337
0.00244805644739891
0.000280273488898581
-0.00136858309503564
-0.00286961347286615
-0.00561796896761992
-0.0107556821573151
-0.018826914266765
-0.0287070867385226
-0.0368793758978109
-0.0382370625995104
-0.0287642892721161
-0.00928519154588486
0.0138632518309027
0.03094792765556
0.0357467393467091
0.0315391739343244
0.0238771533565229
0.0168129090736026
0.0112202278091987
0.00571366254325164
0.00079895745423257
-0.00287248052252769
-0.00413609259140704
-0.00189704958117346
0.00208913547481496
0.00532463406733856
0.00587131327776642
0.0031875069212236
-0.00120882464716735
-0.00411106311023912
-0.00321585049079481
0.000687097946081255
0.00458332536605522
0.00557685586266084
0.00099623619578695
-0.00972766207157076
-0.0246589531254695
-0.0357525557249561
-0.0284123629562567
-0.00267024716007943
0.0199695174489177
0.0228349824710707
0.0133008853249348
0.00648644255710863
0.00689572588652819
0.00977665277630143
0.00959688698520392
0.00499285054469642
-0.00126656239233463
-0.0061800588373457
-0.00803314069232715
-0.00717492227849599
-0.0044979849508732
-0.000825509110362855
0.00319135926563577
0.00704515473780321
0.0105082834278171
0.0124672739713029
0.0128733745495921
0.0119210499211744
0.00959301598186393
0.0064003356693423
0.00275683617607177
-0.00161694421811128
-0.00683406948578686
-0.0123169618021118
-0.0175572463094617
-0.0207637358735635
-0.0202878627281417
-0.0156712845524576
-0.0070492790429946
0.00262232571358646
0.00976107070225858
0.0125553468035342
0.0111088512997459
0.00770365624812283
0.00376566586086757
0.0010760609734925
-0.000275220054251853
-0.000585021451623243
-0.000712714593482036
-0.000332094302124804
0.000897156365481705
0.00207744852119844
0.00320613876399563
0.00433230532773798
0.00516552377431452
0.00590646261230804
0.00602522557742331
0.0054603714173154
0.00440057773585444
0.00230869787679193
-0.000194685769970897
-0.00264784372854704
-0.004068727061521
-0.0038333896820084
-0.00269601881869589
-0.00382515178564648
-0.00964291850484783
-0.0205862483242499
-0.0300960987190995
-0.0278834064175927
-0.0106723034246709
0.0113324339108392
0.023684607925736
0.0218428430333391
0.0124083728112193
0.00427256906244603
-8.95012736253221e-05
-0.00155722161048302
-0.00167464911670197
-0.000699558881608382
0.000688849924287752
0.00175326931058934
0.00122974355805123
-0.00188970275648023
-0.00593793549863429
-0.00765871990074107
-0.00399049857088648
0.00432193370754385
0.012244887872979
0.0150712014800857
0.0122118927865275
0.00603097141288593
-0.00136945747890135
-0.00821739033682368
-0.0126038451648071
-0.0157503197291768
-0.0170020681586396
-0.0159191252129649
-0.0122499120831782
-0.00624907926065416
0.000930138501460978
0.00770764385826354
0.0125577914473116
0.0151522106881921
0.0156505031885885
0.0148914555251646
0.0131112042890562
0.0106261828455747
0.0070839395805052
0.0016700305124937
-0.00753349404292583
-0.0216249092845549
-0.0396048359214179
-0.0507012815263517
-0.0385026704027238
-0.00294314781461956
0.0310768928719316
0.0429113346557329
0.0363217388539957
0.0252353820981862
0.0160716767468885
0.00946473455332244
0.00531901145265882
0.00216414250496821
-0.000892105662641307
-0.00504470289058893
-0.00924657947353133
-0.0118598734168263
-0.0121353203893452
-0.00885425698455254
-0.00283875757599386
0.00333922852236536
0.00827568775052751
0.0106015515339167
0.0106687781649788
0.00941202440559835
0.00760741000597052
0.00530684507499093
0.00218298495874155
-0.00328592768921755
-0.010760956164644
-0.0147956958131949
-0.0101474869065805
0.00259390567835975
0.0134159242737367
0.0141014162065534
0.00559209965500124
-0.00559190871223561
-0.0137892720887463
-0.0156134439197788
-0.0106815872210247
-0.00227911627328224
0.00540733889345394
0.00976514243888858
0.008928515013895
0.00323990491021667
-0.00659248092550695
-0.0179515545954561
-0.0267205471425712
-0.0286633815403488
-0.0217014889641499
-0.00760419521016113
0.00782151815100292
0.0179816553528583
0.0193719401849025
0.014311235666932
0.00655794305559483
-0.000532194002237603
-0.00554164903279513
-0.0080581715556806
-0.0079633314724542
-0.00576874371703218
-0.00240592267848258
0.00139120873774794
0.00469177831168782
0.00701300243864996
0.00783917838429559
0.00777984971525252
0.00676731821070248
0.00566229143963255
0.00459725041111762
0.00325018931478277
0.00168266274064073
0.000117191259147075
-0.000826360579220232
-0.000218099958602988
0.00186640889422725
0.00417215598383394
0.00629110017515602
0.00724892458353579
0.0069906006396213
0.00605365646633082
0.00354410250533878
-0.000542475119121821
-0.00611453626940106
-0.0124048805176095
-0.0178458958227544
-0.0190265023070244
-0.0145585829861236
-0.00598940209570805
0.00404310784320431
0.0117862187602614
0.0154093470418954
0.0155713846042848
0.013542299699532
0.010639577642304
0.00704482751273062
0.00270216109207575
-0.00242108082517251
-0.00791182340358248
-0.0112852160906023
-0.00956906582869706
-0.00295069431792664
0.0036198318065379
0.00622574434039389
0.00401867666564656
-0.00167620158228049
-0.011183311070451
-0.0244609334151487
-0.0393082422714393
-0.0457323805905405
-0.0293369984480723
0.00692757698011258
0.037123436222963
0.0414631805562842
0.0254574951166533
0.00505162179346213
-0.0084125874338335
-0.00889031767377535
0.00180454339529227
0.0131703596816467
0.0162927673684392
0.011826714953918
0.00499415572511791
-0.000700977956947424
-0.00423303639546991
-0.00591743941352614
-0.00715209321175579
-0.00890323295695823
-0.0120566353111294
-0.0160749114028272
-0.0176818521649271
-0.012641771593137
-0.000783920344160069
0.0111444773491318
0.0175085182541816
0.0170250946593404
0.0136453796561668
0.0110873671836212
0.00925937881818241
0.00747408122169558
0.00578527997936819
0.00440593076512223
0.00374043160334191
0.0027969544871303
0.00168757744768917
0.000740379733582703
-0.00014768588811423
-0.000808993752175356
-0.00165518582525372
-0.00205633466929933
-0.00233026895568899
-0.00279259091896887
-0.00355748176945929
-0.00458637620057333
-0.00614150109983854
-0.00747246203976864
-0.00819177089880734
-0.00732021964096351
-0.00498261909081071
-0.00366807344835007
-0.00452587508482947
-0.00649041911858543
-0.00612416314006576
-0.00195722864482572
0.00495189397132766
0.011556639237775
0.0160517552266166
0.0170575264484247
0.0152923432216935
0.0122235194721029
0.00876639118620818
0.00592410611371877
0.0035551432901821
0.000919272145115477
-0.00186545682177917
-0.00481617285245675
-0.00825550084094183
-0.0117015019278018
-0.014020700250281
-0.0149731110944386
-0.0153600484867159
-0.014867174107252
-0.0134575866883051
-0.011093973441028
-0.00828180176324247
-0.0039534128545139
0.00290299719690947
0.0118050691426897
0.0187246786266385
0.0209131493806875
0.0178810048574642
0.0126887113576714
0.00811258097508642
0.00462381540766851
0.00188710164357111
-0.000315216456517281
-0.00175617045919824
-0.00243722405276618
-0.00271077023315295
-0.00274381781180139
-0.00289667324895823
-0.0044582024318611
-0.00822075630767352
-0.013839636964194
-0.0185209792538658
-0.0195564332355457
-0.0186593585280921
-0.0219394576546943
-0.0267387001634794
-0.0188669624847689
0.00550664262521807
0.028093050936359
0.0323793637986746
0.0242575200499676
0.0158645946637673
0.0110106285295134
0.00880034847474471
0.00656490949207447
0.00414388250998638
0.00216263155004822
0.000292352829184901
-0.00156951107633949
-0.00383599373484476
-0.00690798103891786
-0.00983846504383768
-0.00985998275676255
-0.00430132372741404
0.00578740571185596
0.0152936350389003
0.0190823818827737
0.0161830881313392
0.00892711510058213
-0.00153161582215406
-0.014308409753938
-0.0274535143906005
-0.0349313480307968
-0.0295040561847778
-0.0126267176648838
0.00530344274999683
0.0145854007729034
0.0156385009132838
0.0141955098505962
0.0127251607215924
0.0117866390548389
0.010093150258972
0.00580168374625657
0.000184210061007498
-0.00412446468003556
-0.00510385903825691
-0.00197121301981933
0.00276536109860519
0.00739677188495864
0.0107368687219254
0.0127655848761879
0.0128567194310201
0.0119195315360464
0.0103633953147627
0.00794460840022646
0.00453754781515257
-0.000339896805867495
-0.0069374455804417
-0.0156439544447556
-0.0248551376507817
-0.0305804521704343
-0.02846258181101
-0.0182532909703838
-0.00575959421169144
0.00273601891673652
0.00499979892768145
0.00133308605518039
-0.00803182305699791
-0.0219459577326187
-0.032415699574167
-0.0243765076330176
0.00315607634825
0.0298762042448093
0.0372497352121531
0.0296289950312733
0.0195830580930742
0.0124210823071673
0.0080646849945189
0.00536327273687661
0.00320616198273704
0.00151224112858849
0.000221732650324062
-0.00112022822416957
-0.00232685188535241
-0.00292388515550796
-0.00361055953231536
-0.00455840997119124
-0.00607095489592563
-0.00779933092092862
-0.00973125657247897
-0.0104789654301174
-0.00896715009927559
-0.00458386978458755
0.00152898376382653
0.00768773696585909
0.0107674393411296
0.00986785349157685
0.00690274712276266
0.00322931922054505
0.000543473853732926
1.59353235794999e-05
0.000708972070705252
0.00204568809929234
0.00375413364955812
0.00549968829693331
0.00639220649931023
0.00598463534112087
0.00422960175557568
0.000453494148855156
-0.00552207201373241
-0.013011990286027
-0.0199671893908127
-0.0238038395258887
-0.0220779028775108
-0.0137979562396452
-0.00273703222119054
0.00564822990891367
0.00733992164301024
0.00337706997782285
-0.000880232582103605
-0.000888808164221143
0.00338728144313012
0.00741799286996745
0.00720802093359363
0.00118285144267684
-0.00836199345962153
-0.014956286050826
-0.0110428484711472
0.00348177061955825
0.0190115666659834
0.0265042541816562
0.0248368532091342
0.019555326044917
0.0138204091333697
0.00893142452803657
0.00510439915993699
0.00237445189080498
-3.7475634728511e-05
-0.00229571551352756
-0.00366833291572972
-0.00395233075138521
-0.00321555629566658
-0.00156708319736555
-0.000126581646593012
0.000448567241436176
-0.00138117645946254
-0.00675782124209937
-0.0165645558716243
-0.0300548428786608
-0.039987832868329
-0.0315735291791105
-0.00352346026950272
0.0223529070193211
0.0276947829014014
0.0179275047829179
0.00782911412301822
0.00452212389348084
0.00637505625471486
0.00968470876457642
0.0117875523203984
0.0117586431879453
0.0102943101655779
0.00803674608174429
0.00560970627182041
0.00348329268163457
0.0012482175395747
-0.00125516490160954
-0.00434276698863483
-0.00898325390046836
-0.0134221352160896
-0.0152110080737315
-0.01252192681948
-0.00651522589192644
-0.00231039232806524
-0.00320149301119355
-0.00581061724556107
-0.00437877293134568
0.00230351792517906
0.00899009082039499
0.0100241647676331
0.00505276590295359
-0.00378171360725766
-0.013235852939522
-0.0203826783118308
-0.022847911705264
-0.0199443156747596
-0.0124955958286287
-0.00298311618046464
0.00534305027561101
0.00980668861785442
0.0101978548450514
0.00839399262542621
0.00658722030447036
0.0058353019966866
0.00573201400991992
0.00500931333004596
0.00304114068762281
-1.83200666487083e-05
-0.00254558565085602
-0.00314104525219594
-0.000855315719408028
0.00300307193710511
0.00686474380444244
0.0098903344900279
0.0114794176692353
0.0118647379342943
0.0113085390399135
0.0104782793136513
0.00983716681247909
0.00878412254073274
0.00755494369681684
0.00644778225415197
0.00492041937532001
0.0031815303996687
0.00151350892297313
-0.000688852678876581
-0.00332123658153891
-0.00594336682524603
-0.00808053132548211
-0.00778833205469862
-0.00372819381581643
0.00302117145503355
0.00954330883626064
0.0131360488784568
0.0134062191585481
0.0105685863536698
0.00489130772892828
-0.00436472359023704
-0.0189398676546744
-0.0399789182303567
-0.059350591938884
-0.0608334347634208
-0.0381115729513768
-0.00458316968855426
0.0231128873654431
0.0387747042054884
0.0422604074417817
0.0357249763550895
0.0249161383214158
0.0143412296895984
0.00691094644537874
0.00216594905470546
-0.000987198231198781
-0.00449029065257702
-0.00905240516789918
-0.0145379088701628
-0.0195732635141679
-0.0205667988745697
-0.0145537448456629
-0.00296711141294219
0.00794920660334795
0.012178675604903
0.00966088807947438
0.00327496531448973
-0.00410720629239241
-0.0108441547699557
-0.0160941020511396
-0.0192133279751892
-0.0190192097224264
-0.0155105393305992
-0.00938345761164301
-0.00109523224694017
0.00748891620039805
0.0148005383412737
0.0192498429408858
0.0204492421662634
0.0187636196886518
0.0153856004492945
0.0117896691685201
0.00803198541300258
0.00414807823634352
5.39146840968082e-05
-0.00440921529663792
-0.00926963246741091
-0.0141549158038748
-0.01651465780065
-0.0135461248581204
-0.00576217041073225
0.0037531095530923
0.0106220887491264
0.0127772716499231
0.0111396235392689
0.00848808473465444
0.00645610922427748
0.0055033479597759
0.00554275549417397
0.00587686286878998
0.005436975260839
0.0049651270476259
0.00409128059641136
0.00287553849233051
0.00105784184102255
-0.00122593686105066
-0.00409214297920591
-0.00649897798381793
-0.00668478303166187
-0.00353976246511044
0.00179091308711698
0.00696431018636757
0.0092302783368125
0.00808691648831912
0.00441185768199106
-0.00113360835943107
-0.0079999791394338
-0.0150439687568874
-0.0215661102386407
-0.0267409403887965
-0.0273508367018623
-0.0207246306468681
-0.00811657067853297
0.00474898354524198
0.0126575909136763
0.0150896980339129
0.0139029098945284
0.0113966982264701
0.00855397805241545
0.0061565783766362
0.00485052036515323
0.00497066725963846
0.0057593036414099
0.00645323074085424
0.00594497425592142
0.00429882118739305
0.00191558797595124
-0.000289596010195986
-0.00171351386583995
-0.00367943085876055
-0.00686402093247643
-0.0123901292225381
-0.020129662993212
-0.0276515152534298
-0.0313568422516575
-0.0255335343422459
-0.00982572106352321
0.00846389371342631
0.0219995584753615
0.0278262456471364
0.0273344815742056
0.023254076885149
0.0176436113821849
0.0109019840844626
0.00232136469965918
-0.0100444640009121
-0.0261187991047627
-0.038292415273647
-0.0322552181186529
-0.00779924032603635
0.0129082419839227
0.012178025252936
-0.000974415086265512
-0.00710831627481863
0.000112819262484753
0.0122146692356392
0.0197212655242845
0.0200963595207341
0.0155080960211678
0.00877408210879531
0.00278435969827212
-0.000563023354015424
0.000134399358368285
0.00426877892531929
0.0092454162185479
0.0118553157279664
0.011465772274234
0.00852442260466589
0.00493061959423628
0.000848657980026686
-0.00323081172241504
-0.00724117893853411
-0.0105556765792893
-0.0116637595122167
-0.0094557130703159
-0.00498158513077504
-0.000625102543063946
0.00138642420557401
0.00106856087995402
-0.000308263492498581
-0.000535303484715606
0.000127506973602799
0.000777697656939969
0.000326487756383719
-0.00185275724554185
-0.00538249677989613
-0.00834835014244704
-0.0094306846309054
-0.008034991532778
-0.0041428584560254
0.000787390542266518
0.0048004265578505
0.00632736162465365
0.00522007801574577
0.00232940197407876
-0.00111336056390247
-0.0047874510456215
-0.00891982117519415
-0.0133656488664589
-0.0163248528443652
-0.0146259954848062
-0.00818897209971711
-0.00243769833442249
-0.00224838897918706
-0.00625878514556753
-0.00884934049884068
-0.00521186458533444
0.00455520682962598
0.0147194946704536
0.0201216175016547
0.0196269338177384
0.0156811953343216
0.011313217093408
0.00723530132472494
0.00378080202677205
0.00146536303171529
0.000465254734173722
0.000945746244938343
0.00176542365509024
0.00277231988387642
0.00397133410646386
0.00470562394448346
0.00510463482793659
0.00545096458024382
0.0054892135828914
0.00490812142449978
0.00437746163866109
0.00376512110391628
0.00370653052077174
0.00342492976101458
0.00190793258433664
-0.00076349392284468
-0.0053143677387224
-0.0125872260450894
-0.0246421948646967
-0.0409064940855666
-0.0526508318358963
-0.0446988198232752
-0.014244512322267
0.0176693556565159
0.0321789837385632
0.0312431440641238
0.0249690210741612
0.0172125554853506
0.00766383921238584
-0.00307193672101156
-0.0135316656501807
-0.0211022055310554
-0.0209280849014738
-0.00983155260752241
0.00838418052955946
0.0222255201224899
0.0235437313993601
0.014865543060979
0.00359085910664395
-0.00472378839696473
-0.00709734503244029
-0.00453329227276209
9.01566582819074e-05
0.00382975143350038
0.00549322373447508
0.00610595910211239
0.00531463568381108
0.00327335572803361
0.00106528678886059
-0.000905155021484858
-0.0019272444972232
-0.00173188214374855
0.00019952765446033
0.00374791285458493
0.00710694702066987
0.00909845457380592
0.00858664711965349
0.0065152265594418
0.00335470737027629
-0.000734446724006254
-0.00541735245985254
-0.0107480448558662
-0.0161034848677632
-0.0209705128516912
-0.0222645095684625
-0.0173993280901344
-0.00675010721901069
0.00342009202180076
0.00850880185540565
0.00862458102846685
0.00605700212598263
0.00351034790787495
0.0026400590938933
0.00286849766444299
0.00332172667922778
0.00420124027028641
0.00498508294189787
0.00519106058619847
0.00492236008015603
0.00368186877549922
0.00172278362476886
-0.00135118806872005
-0.0056841188474091
-0.0113108957145784
-0.016330728369627
-0.0176243018712632
-0.0116386551206149
-4.16702622945938e-05
0.00890050032476304
0.00792672750891518
-0.00262138401641825
-0.0138752455371385
-0.0144240082951496
-0.00201048706637171
0.013240023262804
0.0199212345027233
0.0167932071990869
0.0104670979170092
0.00621179845671013
0.00447930327800339
0.00300154877745244
5.30853828413481e-05
-0.00409484284339655
-0.00750776270289601
-0.00704138896080653
-0.00345997644646358
0.000983977240770308
0.00439280022616173
0.00581444870538733
0.00659684424825176
0.00780591488522409
0.00874910835524161
0.00855252316693657
0.00794545575706127
0.00652035886043777
0.0045068679659509
0.00214177665259788
-0.000340292387287832
-0.0034074026488871
-0.00763935368509886
-0.0141143105216365
-0.0242234820844034
-0.0379807501708072
-0.0476878011865344
-0.0384218508018147
-0.00874293371462367
0.0210384432900492
0.0322388047698534
0.0290313462723868
0.0222722265749351
0.0165634398629803
0.0121376783472162
0.00850809400229821
0.00600346415482559
0.00450566346508483
0.00348060106169669
0.00290245899418525
0.00312321417751104
0.00327354275525119
0.00317633087487445
0.00238187069583872
0.000244228702247712
-0.0034844592778014
-0.00938904734412311
-0.0157292853524589
-0.0189955818730947
-0.0160034022371026
-0.00690683649448909
0.00339846257463881
0.010656176845258
0.0131456751998461
0.0117647817719016
0.00814991582199412
0.00362097036985819
-0.000768324255302239
-0.00385332868802226
-0.00494047358564651
-0.00432699293620386
-0.00281537918226691
-0.00105441637833764
0.000134337540264345
0.000736404058223642
0.000345689592375908
-0.00199972304845692
-0.00635714393333746
-0.0121283223235556
-0.0174720011093427
-0.0204798634205465
-0.0204900227541256
-0.0177214372340136
-0.0120699877247224
-0.00384633110453198
0.00640637581619117
0.0159940204595756
0.0219421841667244
0.0233676421986857
0.0214617936169395
0.0181490992930218
0.0151526532743331
0.012792311973203
0.0109963923001758
0.00994318875346068
0.00906965307099672
0.00736564702117811
0.00473230537777953
0.00105455888980935
-0.00387507748285762
-0.0101454539010866
-0.0162604979842169
-0.0189907807213886
-0.0149797832887453
-0.0051768459213765
0.00272529475233506
0.00239983840875845
-0.00534631397839141
-0.0123363493726988
-0.0117453495091864
-0.0025488018034583
0.00698785075409268
0.00910934538575288
0.00583257711465992
0.00276498190054512
0.00260679545458661
0.0043405142320081
0.00629960822268879
0.00724296301248406
0.00708457272467346
0.00626849543454888
0.00477557264099212
0.00217286795641819
-0.00238685063045726
-0.0102370535037529
-0.0223570301287942
-0.0383211546023731
-0.0487094853717622
-0.0379697322611229
-0.00554496781605237
0.025777214829405
0.0360812297198381
0.0294343981019146
0.0191389307924153
0.0112553963171168
0.0062913668645962
0.00406172341303232
0.00333983680343144
0.00348412042744562
0.00320107056647148
0.00181339473506022
-0.00130775072889066
-0.00520120824431336
-0.00860923832899004
-0.00888733549764318
-0.00406962230344324
0.00493338758276299
0.0137826290854627
0.0178064973688133
0.0159887335691512
0.0103410393465953
0.0030444159938968
-0.00495069283272848
-0.0139797625612406
-0.0230711554263338
-0.0287657599299593
-0.0288420542380665
-0.0223026672321164
-0.0116198337419777
-0.000316957150264829
0.00744730432119782
0.00999171347863113
0.00936776989662188
0.00873411792903646
0.0108630762141305
0.0146376546065863
0.0178755865434811
0.018713943619159
0.0169618958892794
0.0135196019626848
0.00935387143141806
0.00523173254786663
0.00182305364317161
-0.00112616938169782
-0.00435789113863243
-0.00779234687431875
-0.0103321753484232
-0.0122169366961587
-0.0128038466218743
-0.0111068334225402
-0.00754144038122861
-0.00405921393592216
-0.00198380735202131
-0.00153821482032717
-0.00138406660963131
-0.000665123083551155
0.000346996360110629
0.00176287792026649
0.00346554437448733
0.00478790838430017
0.00466907084735883
0.00178735502973491
-0.00516305208854605
-0.0162069882312102
-0.0284702074886525
-0.0360320411484339
-0.0311932856267141
-0.0127488304142465
0.0108327847757737
0.0278074418189073
0.0328068911679144
0.02944501223356
0.0225099262929082
0.0164377441402855
0.011507587655429
0.00790936245284583
0.00465106167157343
0.00105833499584846
-0.0048257022813341
-0.0121669775180399
-0.0162145875554882
-0.0109092081793789
0.00306418908182056
0.0158940023315243
0.0197030285318023
0.0149459085774711
0.00606782255203312
-0.00488507747220467
-0.0193729208301412
-0.0378395829405692
-0.0515149738925528
-0.045648155460657
-0.0188050836425846
0.00870275884688232
0.0186255770777752
0.0150107847445385
0.0101841523387211
0.00951500572117975
0.0127523262619461
0.0163798835698136
0.0175989333770568
0.0159521489484268
0.0127544995979818
0.00829687876118529
0.00288177484471303
-0.00294573343863234
-0.00834718528676221
-0.0122331029572848
-0.0121053964198122
-0.0072719288735823
0.000890649340057997
0.00900509735331713
0.0138590011211792
0.0146472547706102
0.0122040391206006
0.00773472382072952
0.00266700065911018
-0.00231764690349193
-0.0077474676622576
-0.0139721251558108
-0.0193334534533689
-0.0210565784285187
-0.01692979771848
-0.00832840653188701
2.03369157987837e-05
0.00456714706754685
0.00498648608020496
0.0041173602404223
0.00466185162968261
0.00610784070609919
0.00747638377588154
0.0069250306235308
0.00427711583362825
0.000402810886704119
-0.00341863649253725
-0.00593316583585239
-0.00607203502242703
-0.0032474173822181
0.0018497820782059
0.00768403482166593
0.0113149061264547
0.0124374936008154
0.0111488438377135
0.00801792848893672
0.00392723854851271
-0.000812629020194535
-0.00547238788582218
-0.0103972044428068
-0.0140369943901517
-0.0129514969852804
-0.00454544136433061
0.00867426817510788
0.0195649112774866
0.0221468149438177
0.0156619971100071
0.00271375062775475
-0.015560596288529
-0.0375616860724388
-0.054583908849296
-0.0511286817832773
-0.0241811812230957
0.00552042863588062
0.0185044426957493
0.0164101379483729
0.00991098128995326
0.00550591928976278
0.00510708128794114
0.00828234406190777
0.0115485379246564
0.0119678352212799
0.00980221177563713
0.00623315387928896
0.00424806894086686
0.00490048952839656
0.00789004380783566
0.0116454676284024
0.0136194108039387
0.0131731688044876
0.0111633643018647
0.00845235051241361
0.00562705537684123
0.00280628047266276
-0.000330858105638169
-0.00414557898313453
-0.00864692298551506
-0.0133167886101023
-0.0175435199239022
-0.0210800076842884
-0.0232730620099884
-0.0240352226077437
-0.0236117628454234
-0.0214306265780699
-0.0169774253500503
-0.010579870774966
-0.00319043825000401
0.00734590601240609
0.021058429280311
0.0310788863058989
0.0315850823796087
0.0244406225227986
0.0154770581792781
0.00754585145738133
0.0016646226829828
-0.00206239580221327
-0.00359079294235548
-0.00301295872997171
-0.000945379594059572
0.00160817854150407
0.00358941313041856
0.00438892907170753
0.00416931679292881
0.00340707765559802
0.00310029157250963
0.0021868252102332
0.00118279808235885
0.000520355878549577
-0.000767358191580352
-0.00171619364474052
-0.00144980265277282
-0.000203034087481703
0.00132582874009435
0.00265358648679157
0.00372445187236987
0.00444351836258556
0.00504983791382638
0.00478080947759595
0.00324820574364526
0.000171261416664282
-0.0049983050231228
-0.0120571288074109
-0.0194181310529643
-0.0229678393316108
-0.0195391009416703
-0.00998979851461817
-0.00138430001646131
0.000449660938883825
-0.00373761840774004
-0.0077366328077601
-0.00635580144954878
0.00176298166449164
0.0136330050902352
0.0236478660169366
0.0283037659280771
0.0277104628118489
0.0234276336405213
0.0171864585875837
0.00923815685609969
-0.00199403818195171
-0.0181532500102336
-0.0391953562539061
-0.057100563597689
-0.0562739784656609
-0.0334259127475281
-0.00679574136858951
0.00790915647983345
0.0144724197844889
0.0210773724356862
0.0257760525961437
0.0247396315487932
0.0185972613736626
0.0106014904857366
0.00413328203738825
0.000428577548152051
-0.00048154265885379
0.00101642226270387
0.00378700317000596
0.00665064277327875
0.00810021332311074
0.00706201554725408
0.00410877031324407
-0.000133195359130447
-0.00503548457488834
-0.0104387924134304
-0.0164416225671941
-0.0221848604257071
-0.0239088807042274
-0.0167289358821168
-0.00168024789606649
0.0124002456043695
0.0171837114373948
0.0137789635211055
0.00813391831159941
0.00344099340176097
0.000673134954885288
-0.00100153107700657
-0.0013634599321119
-0.00063149914450643
0.00115280164266011
0.00363421388479993
0.00578744002296143
0.00700580059203069
0.0070840228413617
0.00569242036661884
0.00328846193622801
0.000493707352724152
-0.00195692467054863
-0.00330075931051374
-0.00415188032545012
-0.00468835285055076
-0.00527484558968047
-0.00656842958085723
-0.00836924500064797
-0.00909903684858979
-0.00696731368939625
-0.000890907996951603
0.00776273334839641
0.0160569627792764
0.0209924363852201
0.0215232636104782
0.0189103588476451
0.0144265128512014
0.00848785851505532
0.00124264491247764
-0.00677007209340925
-0.0141459562164771
-0.0177303482730554
-0.0144048949445586
-0.00570166325462688
0.00125114650508232
0.000872120620625942
-0.00693113612555362
-0.0166772327153609
-0.0221818897879508
-0.0190051063548314
-0.0084575839532845
0.00404549665231998
0.01225034209584
0.014502705084026
0.0127297941836975
0.00969083262063778
0.00702823535581001
0.00527416428710873
0.00406599212382088
0.00275233839882082
0.00034281143798121
-0.00394865313992956
-0.0104603244069731
-0.0179418050101001
-0.022641981894372
-0.0184153197849148
-0.00525193674860003
0.00713007128564317
0.0116309451019879
0.0103184620881078
0.00815527224824626
0.00655913909853182
0.00525919219947659
0.0046613060260861
0.00613066011692788
0.00952807405754246
0.0129847713812477
0.0142661712897395
0.0124252186374057
0.00832383227003408
0.00297709253511172
-0.00364166717982404
-0.0116255094338323
-0.021937225890777
-0.0350235031137153
-0.0430863572776928
-0.0326719583652728
-0.00299999090524175
0.0248946294215347
0.0328091470881829
0.0254822858863603
0.0162708043609917
0.00993448733942445
0.00608916043454889
0.00393552121588401
0.00232765891361217
0.000548360136041758
-0.00152028388839321
-0.00485658140453084
-0.00929107157332873
-0.0149651877982592
-0.0207994709799466
-0.0233225142176032
-0.0198729095688139
-0.0105725698462737
-0.000547421116753162
0.00507001382888169
0.00499015891119885
-1.09315546401516e-05
-0.00773041883910383
-0.0141196340418538
-0.0136620636026099
-0.00343610271224547
0.0125003234352216
0.0252092234444059
0.0290693447677024
0.0248577326109939
0.0169862310325457
0.00906409000436851
0.00221982261737541
-0.0028072690247318
-0.00517565770066979
-0.00409388468153725
-0.000701415699710165
0.00331159064008263
0.00562915800105934
0.00572492876250259
0.00474176225107509
0.00359438148606372
0.00252269821629805
0.00214988182405792
0.00214358362802726
0.0014640966697155
-0.000484092326074357
-0.00418049250156241
-0.0104909794356021
-0.0176098247257052
-0.0215494345767123
-0.016063062342641
-0.000767755644198496
0.0145198105069406
0.0207056650620966
0.0186368912404664
0.0137088850393864
0.00940418026738571
0.00636761166996412
0.00415041188470043
0.00215874094040364
-8.61025150118489e-05
-0.0014986037242693
-0.002512615660256
-0.00354971780242716
-0.00460389712097304
-0.00579983399983465
-0.00680368825577029
-0.00787536297196947
-0.00810696032362017
-0.00695386249654972
-0.00399672514097866
0.00120461781913274
0.00819271643862899
0.0140104425231608
0.0159519195218293
0.0132126413338866
0.00748792062691789
-0.000145409851645094
-0.00837998780925893
-0.0151850203345484
-0.0176847414219015
-0.0131454433145768
-0.00384523453671723
0.00371642903534092
0.00541775697814535
0.00267191645158803
0.000133129277356287
5.14490894596696e-05
0.000532687948025471
-0.000599154331783122
-0.00409941353217716
-0.00846297603649756
-0.0137920434685997
-0.0219039617445913
-0.0335180610840541
-0.0423455957731279
-0.0334519305057559
-0.00420856366565289
0.024359461265119
0.033708601306444
0.0275196571293116
0.0184895681160705
0.0120701396645862
0.00859119880370753
0.00663753613898122
0.00473146134712455
0.00199332209082302
-0.0022958901203165
-0.00769328945841433
-0.0127341255106986
-0.01447063111703
-0.010868887815648
-0.00212464710393326
0.00763734039815356
0.0144875112386127
0.016665660931959
0.015942665662166
0.0145942919826364
0.0127463593743817
0.0108161034871082
0.00942959119589306
0.0082937195225247
0.0072029434025325
0.00632986175693525
0.00577757814592061
0.00539459743459618
0.00448407609487991
0.00258152819090737
-5.80097863244399e-05
-0.00339515270843897
-0.0087084881452194
-0.0168310648098225
-0.0257261693479629
-0.0308047274351089
-0.0265014296058347
-0.0129362757384582
0.00261241498300204
0.0125331396689652
0.0171565188983544
0.0188031269582155
0.0182587307458461
0.0161447272114261
0.0132039127171966
0.00984096253911806
0.00528650071911373
-0.000495216925246607
-0.00701611434725764
-0.0139500402664611
-0.0198216765017846
-0.0235309324623877
-0.0252522543219287
-0.0255303604308323
-0.0227670508610303
-0.0141449932703659
-0.000305898008014326
0.0122618696523362
0.0176880149738991
0.0160258005365949
0.0104611838397066
0.00361761968275178
-0.00299047734602532
-0.00711995723214966
-0.00667878142430705
-0.00246037866559258
0.00274239845015902
0.00716756409090422
0.00958151273586454
0.00980859507873454
0.008717439636422
0.00687307659027622
0.00405134185786512
0.000958758610561363
-0.00155438063364877
-0.00155067337739575
0.000842034322304205
0.00523107480575213
0.0101042730063547
0.0136917304465089
0.0147257236600947
0.0128220540244747
0.00765233651778063
-0.00103326817171084
-0.013694029810407
-0.0303537704301716
-0.0473449927825646
-0.0538714477106361
-0.0361353462558482
0.000863731936946667
0.0315964457202025
0.03772933255717
0.0265140480971721
0.0137612399040168
0.00523033350236721
0.0015539348627652
0.00116812608052869
0.00210725944450011
0.00311341117580243
0.00370102805311303
0.00379943354763118
0.00380095601147743
0.00346784849140654
0.00246205118389193
0.00101674304877917
-0.000973357503692992
-0.0029110729116452
-0.0037869821905804
-0.0040824168220642
-0.00392883334889531
-0.00423600558465255
-0.00529783889983993
-0.00577547261196676
-0.00477375193346259
-0.00183440162642246
0.00211418668575522
0.00440024616433279
0.00445285333916681
0.00294808655066985
0.000973852677409056
-0.00103845341925885
-0.00271481363597009
-0.00461317683232327
-0.0068064618056815
-0.00957088435648756
-0.0116129872524423
-0.0115801451946928
-0.00733706960016082
0.00048567946399619
0.00782072095281749
0.0120329433215734
0.0117320611486301
0.00869975142506274
0.00515838317330887
0.00299008198219001
0.00394984216293871
0.00561260214023372
0.00564515870177239
0.00135213662019774
-0.00692536037008945
-0.0141908971846723
-0.0136670319528089
-0.0053190287585885
0.00230455220438409
0.00253429487251717
-0.00270691318338806
-0.00682046797762914
-0.00597981408952206
-0.000602998372265301
0.00673288013386539
0.0106559808275457
0.00544781990023638
-0.0108756268213349
-0.034066686899875
-0.0498774404229755
-0.038597509918852
0.000343314340364506
0.0385416588696753
0.0510056846112623
0.0419048424669188
0.0273994118583515
0.0154892847170491
0.00699481702698728
0.00152256585869096
-0.00175322396753971
-0.00330730954361549
-0.00403793220606163
-0.00417865097079605
-0.00391881481568915
-0.0034265581433802
-0.00380827729489115
-0.00473607952736206
-0.00507424810029187
-0.00401863504375496
-0.00146215615789333
0.00206892955176073
0.00537697323034886
0.00732592047831266
0.00756973005476856
0.00637685411347832
0.00399058319349663
0.000831031970231604
-0.00116848904595625
-0.00168653283374026
-0.00124007768399234
-0.000194449570079674
0.000547926787848867
-0.000181333363594473
-0.00225773696094007
-0.00558515659415467
-0.00862305618930561
-0.00888171416035353
-0.00602165245729002
-0.000273561734229771
0.00509234628955788
0.00789758362300275
0.00806822893656649
0.00592022589072033
0.00268346921854094
-0.000786558489124487
-0.00360038215473365
-0.00570869968617745
-0.00741166379045471
-0.00903164432652341
-0.0103458880569984
-0.0110337025067586
-0.0106850451805562
-0.00991235563635681
-0.0105071252870292
-0.0147488798199855
-0.0209363144982045
-0.0238614978971239
-0.0186620396805826
-0.00497439029177787
0.0119786290379903
0.0234147832045679
0.0251945612953697
0.019072550177822
0.0106843224629362
0.00489457761634723
0.00463100563873122
0.00915621252505512
0.0139963335567215
0.0151175685876492
0.0122547981376261
0.00747868403658803
0.0027683178775386
-0.000428806092534618
-0.00276363857291075
-0.00452724206141041
-0.00575533247684159
-0.00705439609483452
-0.00963494034612517
-0.0157837577428013
-0.0259437905086411
-0.0329665387941841
-0.0227578218122765
0.00557084475892182
0.0314883796980735
0.0369900504917551
0.0271587306863678
0.0149057235065951
0.00602741573988032
0.000771557215788555
-0.00168022095052838
-0.00234665133492036
-0.00186422039178945
-0.000259513710678534
0.00185270178067692
0.00373038618433571
0.00478508985850887
0.00456904616375851
0.00282616916042384
-0.000399933706569807
-0.0046004256060591
-0.00880223537487796
-0.0116317862485522
-0.012276241864767
-0.00951196084241626
-0.00381009712164154
0.0023249515178109
0.00594780854327977
0.00606933046281791
0.00490370711644998
0.00418987526130445
0.00435657885640778
0.0039724771297061
0.000667060205665003
-0.00574834348075822
-0.0132776903133293
-0.0173821718293837
-0.0119788857392911
0.00212626638557895
0.0153476305374756
0.0197515507895068
0.0151955037981721
0.00688802238234512
-0.00169261078694545
-0.00896888592262812
-0.0134370659701074
-0.0138686869958326
-0.00927064366992611
-0.00216956914354801
0.0032094737374815
0.00409003145841738
-1.11573333329285e-05
-0.00720286299196491
-0.0141812824200314
-0.0173136700238194
-0.0142133741939887
-0.00597885620249717
0.00313724045136548
0.00902555176019755
0.0111840228269647
0.0121755571280466
0.012783531706278
0.0121784671898232
0.00738016137289514
-0.00120828432312271
-0.0112735957496262
-0.0197896574344057
-0.0219581704955191
-0.0148051151840936
-0.000623878157357711
0.0131207654798537
0.0199001126296782
0.0185496620708389
0.0134929644987812
0.0086133122755999
0.00498275477306462
0.00203338118138492
-0.00135359178196451
-0.00556417639488853
-0.00955216247715862
-0.0120062674711049
-0.0109027159462843
-0.00470197755955557
0.00538371644785997
0.0154742495149856
0.0206497812923772
0.0191479094247943
0.0112888194386191
-0.00250424748225174
-0.0202049903925787
-0.0331068710448237
-0.0263534824728734
0.000714231173049892
0.0262938211198662
0.0322692869140597
0.0239895581740583
0.0136406578016156
0.00603172502218734
0.00148936074378504
-0.000647924700588387
-0.00119736872157964
-0.00122314170739345
-0.000627039422878801
0.000510238282825115
0.00150406190278411
0.00191663802948246
0.00173282120370878
0.00104489554054304
-0.000316719425198075
-0.00272533270532041
-0.00614699868943287
-0.0106359190754418
-0.0161981840967532
-0.0213168579038921
-0.0236539166729859
-0.0218587694288353
-0.016916108205036
-0.011497511055616
-0.00707501909345387
-0.0025189676523602
0.00506763174081259
0.0148190773046907
0.0217835097776001
0.0216513879144955
0.0136411778424139
0.00135107177273359
-0.0101376967714429
-0.0162564986374269
-0.012883124973089
-0.00142080613309569
0.0111487764444901
0.0185389431381862
0.0194453023585682
0.0168139585232869
0.0124287776581857
0.00675332459540282
-0.000320166464406145
-0.00837655535700214
-0.0169157592726948
-0.0247745619968049
-0.0300779562605912
-0.0319653808294427
-0.0284749728009525
-0.0163339714837344
0.00189366923237133
0.0173297142032811
0.0233630495767234
0.0226722414317199
0.0200479651795726
0.0169222331800524
0.0137328938342144
0.0111917312871471
0.00943459241554117
0.00856886101683217
0.00789093397047652
0.00746727510687394
0.00687297320388213
0.00545495866637049
0.00234598786437299
-0.00365060921151382
-0.014399928080715
-0.0296149958347161
-0.041346931669791
-0.0345948595131399
-0.00896000459820765
0.013863986161842
0.016840124242665
0.00709901025387977
0.0004971070651551
0.00140696248846221
0.0056123922722763
0.00745950722401043
0.00621891082696007
0.00549389645476715
0.00707521077558978
0.00956045435067846
0.0100557220390192
0.00782606262364113
0.00458131019846985
0.00176381534621867
0.000188419027138841
0.000154925445485093
0.000756331650798488
0.00152170564700482
0.00221886682320864
0.00280474087424001
0.0021404266063066
0.000587928659505259
-0.00172636904073988
-0.0037278903668915
-0.0045716207294578
-0.00449822466516142
-0.00457268546617192
-0.00554413231593021
-0.00723668185898239
-0.00866085671123868
-0.009070981818066
-0.00894940476077567
-0.00822453676903833
-0.00661380523126447
-0.00543134466314004
-0.00482629030016166
-0.00480990148137875
-0.00537116150354841
-0.00454349902832522
-0.000952900558316437
0.00441502451945707
0.00885835030224398
0.0100908406204828
0.00832735021799608
0.0056675326295296
0.00425859435639656
0.00334153132263264
0.00186206846976453
-0.000810981071125776
-0.00360160961968045
-0.005629718067363
-0.00580769632375364
-0.00537356931725827
-0.00623840154495095
-0.00834064863127099
-0.00847215954610978
-0.00276732141797563
0.00801269939216689
0.0181206678623835
0.0216654205603686
0.0186595557053557
0.0125554195508027
0.00615946313650044
0.00108494190774779
-0.0028006176066656
-0.00683139457756498
-0.0107062663413918
-0.0132077591542341
-0.0126925686867922
-0.00678421690626427
0.00323226631320148
0.0126165420023174
0.0167518459030155
0.015641974699709
0.0108498523133752
0.00486407380761429
-0.000473284978295528
-0.00329124627669327
-0.00314472188759816
-0.0014672480791586
-0.000978327217304259
-0.00428320856028255
-0.0109870098257425
-0.0155395030035493
-0.0111722955318151
0.00302673072282588
0.0167809145027349
0.0219201788233297
0.0195933062898562
0.0145584754729321
0.009905739945661
0.00658528801544694
0.00469976387253392
0.00386092658285554
0.0033957509480997
0.000695895902578516
-0.00491561060325984
-0.0139775419195519
-0.027797860912086
-0.0457835158618086
-0.0632079527286769
-0.0683518933095675
-0.0469368117015652
-0.0037183463997074
0.0343817621481908
0.0475551008297583
0.0416004400872205
0.0307240448809403
0.0208914528001014
0.0128046265926969
0.0051971035636127
-0.0017611384477652
-0.00698477322880202
-0.00891261157495352
-0.0065422251132828
-0.00115836744592463
0.00461441261030744
0.00765742852934699
0.00729887432994525
0.00446845223702677
0.00111655140496399
-0.000943016351818983
-0.000892302906287013
0.0001981017628635
0.00134352589379583
0.00171294592449156
0.000867859767217635
-0.00106274127097759
-0.00262219867296441
-0.0029519816247952
-0.0028062753801624
-0.00224986600612185
-0.00237781079187062
-0.00342181365338528
-0.00429634047543296
-0.00360516916740789
-0.000618943865811832
0.0034007927327532
0.00549369465057532
0.00312621625235456
-0.00288256270910795
-0.00848356816246407
-0.0099431471201341
-0.00807439746771183
-0.00578726297425298
-0.0037932162782454
0.000574461593663503
0.00851770813995477
0.0161802292221364
0.0195081853840969
0.0178659702218266
0.0138026154819863
0.0100393534977973
0.00730250233669188
0.00558798924239779
0.00479183198419579
0.00456430903655389
0.00457696035983212
0.00448872016635458
0.00416171641776209
0.00264521065709538
3.77558328273154e-05
-0.00274305337896259
-0.00604778529560896
-0.00954836569010039
-0.0136976216133652
-0.0178002874686504
-0.0210954363422271
-0.0219851456519237
-0.0184632684374875
-0.0101218012137976
0.000552775509156492
0.0097417154852983
0.0145890825927981
0.0140612993832777
0.00762438089915269
-0.00498380076335254
-0.0216850979476542
-0.0342111847157903
-0.0271593056730132
-5.26097595165871e-05
0.025993665116011
0.032108993900888
0.0229710162374396
0.0124441813590846
0.00715735564486161
0.00660301140292784
0.00889316613453526
0.0114979033351381
0.0122131900156961
0.010093029064732
0.00531173127779454
-0.00110505088415462
-0.00826794305135923
-0.016595285974168
-0.0257390133542821
-0.0320675879852198
-0.0307396662826821
-0.0222876980973039
-0.0141485072391729
-0.0108437952565147
-0.00907661681957789
-0.00480778668695376
0.00106563997579964
0.00623121858179555
0.0111510523902905
0.0167974101473555
0.0207105758213269
0.0202893378825472
0.0161914797274635
0.0106655995871501
0.00564662235382632
0.00195387787939267
0.000157038796234185
-0.00038810923459944
-0.000736541617884693
-0.000726895815933498
-0.000297277654266696
0.000665234588289141
0.00194817553246728
0.00358244382971089
0.00518758074480573
0.00664044763597285
0.00727846738719281
0.00713428393978292
0.00674635944912347
0.00576117091301415
0.00431377872158964
0.00221736665422639
0.000390771458621838
-0.00138426183141905
-0.00249093697838666
-0.00272874512397094
-0.00216432140220992
-0.00114535839623788
-0.000651875702425806
-0.00162569526331874
-0.00368864098866935
-0.00714576414833309
-0.0111162753323166
-0.014492118561915
-0.0163314599847231
-0.016208434931964
-0.0147945992008177
-0.0129644529041075
-0.0110638355529588
-0.00877203787533573
-0.00594089196593159
-0.00328063334040172
-0.00210194494525951
-0.000931442400206601
0.00336547444377676
0.0105708317649646
0.0146134650829558
0.00808742876708449
-0.00816901272893258
-0.0226141992886933
-0.0176939707553076
0.00869748628302317
0.0344035683237359
0.04065555369073
0.0322812638001615
0.0220006298164477
0.0146681524347859
0.0100759660144104
0.00695693050154179
0.00417076587873406
0.00115781274552912
-0.00268173322404886
-0.00791479857077312
-0.0151996420779958
-0.0233515386097729
-0.0286165690662643
-0.0275937965413801
-0.0197599380314003
-0.00966689867672644
-0.000711353401103374
0.00531612299722022
0.00953072862117904
0.0133588182650798
0.0161183674752534
0.0166339918646789
0.013919729347949
0.00954643717507495
0.00589459735218221
0.00367100693821678
0.00227650052858824
0.000918813460709308
-0.00210591867556072
-0.0072621888909099
-0.0140735130943662
-0.02217685090049
-0.0292635495619401
-0.0305478126831871
-0.0208808076125585
-0.00185688716948984
0.0153516734893312
0.021663690612434
0.018109468363698
0.0111951336944794
0.00551287199283012
0.00277558053566031
0.00237675643794922
0.00348482528441233
0.00432908526512437
0.00473852108071757
0.00449817589808665
0.00339906622237912
0.00164421448461942
0.000269233833338935
0.00111603391516729
0.00416382804827814
0.00713595276439601
0.00771155554487115
0.0050508414626098
-0.000628497566350952
-0.0082852249363041
-0.0161342011976434
-0.0212803224574052
-0.0201074832528726
-0.012618228891221
-0.00369204354947163
0.00217265566761737
0.00537979521236496
0.00803791416178397
0.0108415487060829
0.0125419542844098
0.0122411012815908
0.0108991504086404
0.00935047683338552
0.00750618922274893
0.00544182994221256
0.00267698951529194
-0.000402235441736106
-0.00365848522486641
-0.00653958143927536
-0.00791553236286081
-0.006707477008147
-0.00421643473274149
-0.00419362934828774
-0.0107760556668861
-0.0235379268071303
-0.033648973061502
-0.0249962705114339
0.00328011144194213
0.0288955671937456
0.0331309258413253
0.0203570990752657
0.00357105743534818
-0.0102448653512398
-0.0172836829624994
-0.0165319260739199
-0.0091138774505111
0.00013322682074607
0.00707780949584299
0.0113151543003428
0.013871900582281
0.0148118729443668
0.0141690239963041
0.0123794867337779
0.00981826033959098
0.00694653454225175
0.0042976270529023
0.00171330801552898
-0.000953218265363921
-0.00365020369686635
-0.007107430686147
-0.011157951501175
-0.0147496385741637
-0.0162539615338258
-0.0142405190862819
-0.00958762974392642
-0.00313045319256184
0.00347036556431601
0.00796759544744282
0.00832707822930234
0.00394497384571221
-0.00324078862536095
-0.00818813356958093
-0.00498164346257243
0.00546333573597651
0.0140435649762977
0.0128647522134186
0.00402023131828891
-0.00557756306364021
-0.0110993314530698
-0.0121059763927599
-0.0102567967913521
-0.00676174391843641
-0.00144910855286841
0.00520627349614755
0.0111684366888953
0.0147869962089507
0.0153581563889762
0.0138768104471802
0.0110776685934368
0.00650476973703835
0.000285915210524369
-0.00731403626579907
-0.0144819489165197
-0.0176968146943943
-0.0135314057532481
-0.00282657528757639
0.00763061299155584
0.0125334981819738
0.0114861248129103
0.00768586490981089
0.00377299540923009
0.000574352219837246
-0.00250632128826432
-0.00606820843199562
-0.0102179571230041
-0.0137168299378844
-0.0143650283823674
-0.0104041354377149
-0.00273693902525353
0.00556780406747094
0.0104480053599811
0.0100612953774278
0.00456436715437361
-0.00283177532880762
-0.00679304110894063
-0.0043612376846254
0.00382376341801591
0.0124042775427275
0.0166174302527847
0.015492545204583
0.0110128043549514
0.00639938440550603
0.00196652002269235
-0.00210048604047603
-0.00504624493873648
-0.00649634417578517
-0.00681633211131039
-0.00672546631484273
-0.00576115712108721
-0.00382365146751003
-0.00107826184038617
0.00198342136778917
0.00374064138714513
0.00377265785358373
0.00251676228782119
0.000494173996009533
-0.00232615037382602
-0.00799120110830082
-0.0176605012813808
-0.0306297311682291
-0.0389426057253145
-0.0284715397499039
0.00130267036804028
0.0281837029989993
0.0335762644513748
0.0224629398343386
0.00829970939527843
-0.00137906101173739
-0.00526654805664901
-0.0047241178221214
-0.00191041915121691
0.00130876819995192
0.00285768565550524
0.00113965594512392
-0.00372848915592283
-0.00777525178257041
-0.00590827071737461
0.00188876357901212
0.0106507410865804
0.0151244844555299
0.0147591477333606
0.0121815605981021
0.00931713522172722
0.00635871366514168
0.00264862163769653
-0.00133877598775453
-0.00496556829244215
-0.00676857804920252
-0.00484030290305568
-0.00129797261969652
0.000592153302574271
-0.00165425303361083
-0.00893428575324838
-0.0183204650539202
-0.023605806963514
-0.0180345005458266
-0.00166246347932466
0.0153051149623597
0.024048191632451
0.0239685761467557
0.0197083827005385
0.0139039948245999
0.00730578391164138
-0.00039708145079962
-0.00952470878992964
-0.0198622308399456
-0.0292057739904475
-0.0329284510598907
-0.0270791792530344
-0.0126082028765989
0.00356256425194183
0.014583932839954
0.018454130482703
0.017251646048499
0.0138733764017094
0.010690300989097
0.00840508128806891
0.00717967842669132
0.00644663100508178
0.0056489199383396
0.00514075054987944
0.00489750390356173
0.00517072186461675
0.00574288771370831
0.00627995930773496
0.00653151068259494
0.00570050115220771
0.00346399807515112
4.21539441389676e-05
-0.0039987325316563
-0.00813470075406892
-0.0118580935468161
-0.0144523605316452
-0.0159511285603942
-0.0174799594779682
-0.0191158475535857
-0.0185647296341669
-0.0129918082817513
-0.00412802712285706
0.00232549788402453
0.00296448029012041
-0.000400920677392018
-0.00272329068169023
-0.00266253289332332
-0.000756422416188461
0.00238608358283593
0.00686928036561728
0.0123397443880296
0.0166710380794157
0.0186697135048636
0.0182828820452663
0.0164979908746839
0.0140287246703287
0.0113545275336225
0.00879044392293309
0.00652994447768609
0.00283866921861462
-0.00311261006012313
-0.0125276874999158
-0.0264957444671764
-0.0426180737072225
-0.0518129456622469
-0.0390262213498928
-0.00448020635867538
0.0280383922876298
0.0380946476009296
0.0306228279115644
0.0194919830431005
0.011050094224201
0.00580661198880768
0.00156086773983891
-0.00331128104026331
-0.0088216979681974
-0.0136978581104325
-0.0144604255268403
-0.00881809356432568
0.00182154754643103
0.0125052001454882
0.0178555476530111
0.0164640336355872
0.0102973287191706
0.00140936376170821
-0.00900141409405399
-0.0193813764196987
-0.0258067131540451
-0.0223162090218659
-0.00980198123277241
0.00294937775423031
0.00900855953627806
0.0101302047420502
0.0106036296374261
0.0116365486338123
0.011907621733829
0.010482510519516
0.00808237962768501
0.00532687957931867
0.00282905452509051
0.000344133657154925
-0.0020956345063757
-0.00503680825252586
-0.00926582018949948
-0.0135395994168696
-0.016013553775759
-0.0146453683284371
-0.00930039614574262
-0.00243078426798324
0.00321439993954525
0.00608307112098872
0.00737713718334118
0.00654871155590073
0.00500438866486632
0.00428639003111691
0.00475151553587917
0.00553963908828909
0.00569239274106537
0.00499415271236115
0.0030386791930187
0.000563848516865814
-0.00223226959063038
-0.00482401182482925
-0.00583445930663715
-0.00430456399356649
-0.00164375444343252
-0.0007734482593906
-0.00396831833707841
-0.00989646133972027
-0.0163285742583267
-0.0179706288487098
-0.01082464831017
0.00364363851158905
0.0178152104182064
0.024538079455112
0.0238268864359111
0.0186741142554069
0.0121009993012865
0.00584390326836479
0.00158129995009793
-0.000157797034212669
0.00141360927744389
0.00514625846615936
0.00781348368585018
0.00563186055726521
-0.00442317206513661
-0.0207818524574258
-0.0338992640026768
-0.0280966905010526
-0.00197248603709061
0.0225051650847906
0.0266068908755697
0.0148983955884778
0.000860708736153101
-0.0101750659170145
-0.0167186621896276
-0.0198585325519654
-0.0201598399613768
-0.0174035110272119
-0.0118168956861616
-0.00579462776358671
-0.00445748918261466
-0.0092064035577842
-0.0142990386010648
-0.0104110659500886
0.00389600285179731
0.018937366008554
0.0248097082534153
0.0213274811059163
0.0134129210271594
0.00504829156914159
-0.00158348189857992
-0.00498866976592944
-0.00390152998865799
-0.000251301286558335
0.00392772332378958
0.0060837240526551
0.00585740892884031
0.00413400052911975
0.00232894560628547
0.00134182981652447
0.00108410762172187
0.000821534776973307
0.000313666034315978
4.30672405006575e-05
-0.0011321141666351
-0.00236504196052865
-0.00369063235260202
-0.00528517230015146
-0.00714000635699958
-0.00910070293107747
-0.00976337618005787
-0.0081786139761521
-0.00404861120968039
0.00158686094388314
0.00731280080986495
0.0110753139424565
0.0125290006075712
0.0116951549554028
0.00873144534233332
0.00506515638606578
0.00141792256510243
-0.00103404642537172
-0.00155384451653887
0.000761749664671847
0.00532075152557119
0.00986595574382125
0.0123689373479066
0.0119046934229972
0.00881166078302596
0.00390216258737338
-0.00119324952076009
-0.00655022310581774
-0.0109422133810986
-0.0140254514456019
-0.0138208352411587
-0.0102357555633611
-0.00594238851590121
-0.00470492852084218
-0.00924204149583558
-0.0192177714797405
-0.0261566644096137
-0.0153741773600741
0.013399269991336
0.0387318527144274
0.0419619471103986
0.0274445480165672
0.00773283178208663
-0.011695509620691
-0.029224594180012
-0.041327185398562
-0.043751658997843
-0.0338527531040841
-0.0148293362265673
0.00525907938727826
0.019628499269231
0.0257247271894319
0.0249864074486082
0.0208925296338214
0.0161625650388574
0.0112279011067629
0.00688053642003257
0.00356331492436513
0.00124247225542476
-0.00102536523498072
-0.00366638932888762
-0.00636683712458621
-0.00991458543174434
-0.0124981863280549
-0.012024711327598
-0.00836650047016192
-0.0019974907586406
0.00463239109097116
0.0085934808372163
0.00953447799887786
0.00816102147081711
0.00566347454633781
0.00277245633423349
0.000931243836296579
0.000205846016558829
0.00103735278021481
0.00222205062866776
0.00257454455618977
0.00202898797151705
0.000987590957337203
0.0003254757247818
8.85258323764272e-05
-0.000245946041005412
-0.00253369881912837
-0.00768488393824349
-0.0143379638535017
-0.0177907041209746
-0.0119956686558351
0.00287579451164317
0.0172458100753097
0.0229039757646765
0.0213057769443417
0.0167318845918514
0.0123714022251538
0.00848752173880451
0.00417900565928855
-0.000278157271188623
-0.00592427477012757
-0.0119537832891152
-0.0177195554213988
-0.0206477263910491
-0.0178773048705797
-0.00968580725465072
0.000164994360085404
0.00739985527759872
0.0100062078278677
0.00828098550902227
0.00377570208516528
-0.00116775553832264
-0.00508175841323882
-0.00712229437978013
-0.00704002703760548
-0.00543567080642971
-0.00547881880370915
-0.00944523061735442
-0.0178263321656938
-0.0287674561290586
-0.0337535807226569
-0.0196735090698715
0.0125691064705042
0.0407935210258548
0.0466809427616505
0.0356267777968699
0.0212047830772157
0.00846483107345734
-0.00214289308228885
-0.0107419596896001
-0.0153712965769315
-0.0141469667493744
-0.00732651934283707
0.000323628555404262
0.00541076517958557
0.00813247286484536
0.00990078768929475
0.0106941761653397
0.00977108811143199
0.00692321789689186
0.0025426452015646
-0.00185615695579234
-0.0055116666188276
-0.00804493391364188
-0.00970973627585738
-0.0106220742962871
-0.010634806354952
-0.0106772816443528
-0.0114993483651164
-0.0137788604621134
-0.0162683565974238
-0.015331474631048
-0.00742810349271058
0.00585460059136204
0.0179372940077194
0.0231243697453577
0.021378882349179
0.0169535104223758
0.0120768396841778
0.0082272217728191
0.00559886486407623
0.00422837018250205
0.00359809650549564
0.00328842948719003
0.00315719871628029
0.00284798381131588
0.00238965066683429
0.0013552083936887
-0.000523517103341856
-0.00234924168356201
-0.0039674127609352
-0.00532500053750823
-0.0066121435669827
-0.00815402758325229
-0.00999063393480515
-0.0117610592160031
-0.0124844438721977
-0.0109447033099515
-0.00733975978548258
-0.00222044775640815
0.00188757804068848
0.00384278206582013
0.00389708913721196
0.00210749856041127
-0.00133199380370164
-0.00560650956918497
-0.0101757926558149
-0.0137149197383906
-0.0136243710732931
-0.00570609335497742
0.0087316000665276
0.021058193944619
0.0236113602789522
0.0175050707449588
0.00916386364140673
0.00177066240854952
-0.00238590565536216
-0.00330367669579246
-0.00190759559079814
0.000488354143445102
0.00216759974847976
0.0019111452523006
-0.00101412365574729
-0.00494034290907803
-0.00685990012589206
-0.00566318154663165
-0.00192747561374024
0.00191759095046861
0.00353537261158232
0.00269395670267342
-0.000246807471932187
-0.00497900985318792
-0.0102430364320965
-0.0127430188664304
-0.00902561496944206
8.89964878952052e-06
0.00992434932554721
0.0158207390696063
0.0164860008272736
0.0131019516711138
0.00601776937618085
-0.00301970524252112
-0.0116290540504118
-0.0161362786526323
-0.0125730392517658
-0.00183019475397112
0.00933026213274845
0.0154032540786788
0.0161459076740948
0.0150373645354453
0.0133875972563532
0.012178185314654
0.0113526975345131
0.00958674981732405
0.00631433211419321
-0.000125368377661713
-0.0110479208227759
-0.0258325876891724
-0.0365058858781969
-0.0283796545537225
-0.000702164009528468
0.0255753011278769
0.0312728345683309
0.021162214337173
0.00790624465497978
-0.0029412390345196
-0.0111218448144856
-0.0173914099610605
-0.0206900230225508
-0.0206122806315498
-0.0173460445799911
-0.0118363244510882
-0.00561012835819679
-0.0001999551930208
0.00382713912404436
0.00600011004779644
0.00637723571890878
0.00437180058185023
-0.000528987368726177
-0.00715842560280488
-0.0118920198201118
-0.0120009898661685
-0.00757223880631572
-0.00212354456008345
0.00152152851812476
0.00386191186814531
0.00707915211811137
0.0105556511419796
0.0124117230549972
0.0114684836237302
0.00822806728803221
0.00424657659306105
0.00106627298339586
-0.000138601942994236
0.0012631889325381
0.00410573557431724
0.00602169387023087
0.00574946789929636
0.00347259631961426
0.000735166863900618
-0.000968237115739594
-0.000639888680249254
0.000657020205046559
0.00190972899775262
0.00331778604165273
0.0038663756258429
0.00312551903845498
0.000721466151111962
-0.00379257794085552
-0.0107356576612817
-0.0184994701332663
-0.0222503334751145
-0.0164181691128534
-0.00140336556467906
0.0130517902689436
0.0186430091182381
0.0157403768817301
0.00933260078041783
0.00315302706985424
-0.00231180741531379
-0.0074951190201386
-0.0128615543029018
-0.0178234223654947
-0.0194653668198752
-0.0146047009211197
-0.00368328929055499
0.00828274341921431
0.0153305749374459
0.0175302581561708
0.0167668150179052
0.0149735753313303
0.0127506297313868
0.0108167459701767
0.00908429755620137
0.00762838755469946
0.00683753862833953
0.0055102950808571
0.00396654123699708
0.00221178599726181
0.000238666915377844
-0.00222677765462508
-0.00604780043482359
-0.0118220013681271
-0.0193155352585216
-0.025738114191196
-0.027129016136155
-0.0193048201126243
-0.00474225336609604
0.0090698754723511
0.0156320942666636
0.0128386560136973
0.00467336759788778
-0.00485655637043308
-0.0121248113314591
-0.0143200057380287
-0.00994205696322525
-0.000397495686352751
0.00914974561079
0.015172537785897
0.0174082409102797
0.0157985238374195
0.0111576869554059
0.00257121244403402
-0.010962219739579
-0.0284570362071795
-0.0413847151149245
-0.0345404228957505
-0.00665101806285144
0.0210763131650554
0.0297285215622459
0.02347149647964
0.0143967322977259
0.00712262105119078
0.0016577279313659
-0.0029525149032701
-0.00761497883852167
-0.0124821573401554
-0.0169072688743355
-0.0182134509626515
-0.0125479290781521
-8.18149795983117e-05
0.0114845130908807
0.0159184851474277
0.0132977150097938
0.00775108200894051
0.00238780418714552
-0.000985802789172195
-0.00138956158799081
0.000909113234315387
0.00453501400462444
0.00789656758035042
0.0095827459300089
0.0093559914272198
0.00793190690239175
0.00431665911992317
-0.000632040030078947
-0.00556811190239408
-0.00874329591591427
-0.00938508815061416
-0.00959102626537366
-0.00967107474869296
-0.00822049225828777
-0.00283678265014914
0.00686335724070299
0.0157254994251941
0.0184711285491549
0.015358868513586
0.0104384769870932
0.00542687377008377
0.00131820602406166
-0.00181672807812277
-0.00435490688094293
-0.00669866601976022
-0.00949314931614406
-0.0133987907775111
-0.0175560665782139
-0.0202907634256293
-0.0181133701284364
-0.00954076545787411
0.00302145342531873
0.0137240347713796
0.0176694500769204
0.0147519274965195
0.00787181858940658
0.000390420351459159
-0.00522000698071216
-0.00674210301060906
-0.00382619370078801
0.00181798050441642
0.00786363368442566
0.0115680390911075
0.0122962304653022
0.0107000572518771
0.00816387445259724
0.00528197756796662
0.00306435396286802
0.00204920079535778
0.00138263371138482
0.00119218405595646
0.00116254798054112
0.000810611407582723
-9.89748188431985e-05
-0.0015252121165328
-0.00372801024006038
-0.00631187964971183
-0.00774733912094158
-0.00810760223806034
-0.00672357967204047
-0.00621697442998073
-0.00708473171494635
-0.00943685981556716
-0.013302456303565
-0.0177897328000177
-0.0212166448548601
-0.0213930796398475
-0.0163549674572182
-0.0030097953542762
0.0162685376697418
0.0317762914549237
0.0361455251582422
0.0309079078886682
0.0210172427795128
0.00900536503957355
-0.00552382618557616
-0.0233597467485054
-0.0431014262452315
-0.0544880787452794
-0.0411755885405908
-0.00290446939090582
0.0333100460710785
0.0449869958190964
0.0360491707703274
0.0212463106691597
0.00927202321118393
0.00327378591615799
0.00156146373418653
0.00183408326722536
0.00179052522273797
0.000793196185621273
-0.00017775448958144
-0.000781224154343922
-0.00107542409033658
-0.00243990946337738
-0.00541190814905901
-0.00992328199459288
-0.0156630673341816
-0.0212080709098045
-0.0221329305549124
-0.0151956435431794
-0.00246304003547824
0.00880915473131457
0.0115691624145617
0.00563374581447528
-0.00221548140565059
-0.00366030822340616
0.00216242116219324
0.00865833332695287
0.0104579959517255
0.00770070808327592
0.00409777114871164
0.00212534693967
0.00226060734740581
0.00351028693609644
0.00485400300775925
0.0058319752576526
0.00586420667598467
0.00501553831854421
0.00352855072907286
0.00204793291253999
0.00109305962086512
-0.000120909748352846
-0.00115003493811301
-0.00100363772569167
-1.08045235332021e-05
0.0012412275545944
0.0031194788748715
0.0056440899595906
0.00765875686554156
0.00832650342544911
0.00690351644951382
0.0038919002004771
-0.000255299564481653
-0.00508762049369166
-0.0094031697450705
-0.0124229073280867
-0.0142853901683451
-0.0173162635706101
-0.0209674787016049
-0.023073862498934
-0.0202596782538396
-0.011365771144704
0.000462831534853267
0.0110122816993691
0.0179976633504763
0.0214120649898527
0.0222429722880864
0.021446752647119
0.019349123041161
0.0161203331264225
0.0116254150082616
0.00560482051014814
-0.00202507014945972
-0.0128760442796449
-0.0271636627646257
-0.0420464836485425
-0.051178642499261
-0.0466407005081448
-0.0225131153665914
0.0138281448127769
0.0408024396198785
0.0450077563038801
